##TITLE=2 hcl better
##$NOTE=11.03.2023 11:18:3 ^0 x10 v:1
##$ITAB=-1,-1
##FIRSTX=499.643
##DELTAX=1.92912
##NPOINTS=2333
##XUNITS=1/CM
##YUNITS=ABSORBANCE
499.643	0.158858
501.572	0.0393439
503.501	0.060434
505.43	0.054206
507.36	0.0402161
509.289	-0.0787206
511.218	-0.098081
513.147	0.00762358
515.076	-0.0774521
517.005	-0.135258
518.934	-0.13643
520.863	-0.120218
522.792	-0.166433
524.722	-0.201763
526.651	-0.101261
528.58	0.0197467
530.509	0.080055
532.438	-0.0521308
534.367	-0.0987976
536.296	-0.0220869
538.225	0.141419
540.155	0.143122
542.084	0.128043
544.013	-0.0655625
545.942	-0.255675
547.871	-0.38584
549.8	-0.289751
551.729	-0.0645705
553.658	-0.0438502
555.588	0.0202902
557.517	-0.0135495
559.446	-0.0277392
561.375	0.0420265
563.304	0.0986129
565.233	0.124109
567.162	0.188118
569.091	0.210023
571.021	0.28814
572.95	0.454932
574.879	0.354519
576.808	0.344601
578.737	0.215675
580.666	0.180747
582.595	0.113434
584.524	0.0805662
586.454	0.0752659
588.383	0.0644543
590.312	0.0457482
592.241	0.00501252
594.17	-0.119055
596.099	0.0456124
598.028	0.138939
599.957	0.0754476
601.887	0.101299
603.816	0.113569
605.745	0.0288691
607.674	-0.0766913
609.603	-0.130297
611.532	-0.108324
613.461	-0.00112413
615.39	0.0546197
617.32	0.104031
619.249	0.289759
621.178	0.385428
623.107	0.173643
625.036	-0.00698746
626.965	0.0377696
628.894	0.149395
630.823	-0.0353356
632.753	-0.244979
634.682	-0.246357
636.611	-0.0413043
638.54	0.167326
640.469	0.182276
642.398	-3.72189e-005
644.327	-0.125637
646.256	-0.0386954
648.186	0.0904593
650.115	0.0291837
652.044	0.102199
653.973	0.247743
655.902	0.292222
657.831	0.07526
659.76	-0.107992
661.689	-0.0950507
663.619	0.0481318
665.548	0.0656729
667.477	0.031393
669.406	-0.03368
671.335	-0.0325688
673.264	0.00284429
675.193	-0.0770407
677.122	-0.117092
679.052	-0.0231222
680.981	-0.0716315
682.91	-0.0744274
684.839	0.0405295
686.768	0.137223
688.697	0.131923
690.626	0.117418
692.555	0.159446
694.485	0.163807
696.414	0.198289
698.343	0.319304
700.272	0.362789
702.201	0.364996
704.13	0.412706
706.059	0.353153
707.988	0.226455
709.917	0.137355
711.847	0.0324702
713.776	0.0265378
715.705	0.119111
717.634	0.225441
719.563	0.140753
721.492	0.0134479
723.421	0.141083
725.35	0.129274
727.28	0.139299
729.209	0.283446
731.138	0.302349
733.067	0.425698
734.996	0.253148
736.925	-0.0593591
738.854	-0.105008
740.783	-0.0521451
742.713	0.112988
744.642	0.0820121
746.571	-0.0452751
748.5	-0.0418273
750.429	-0.0895193
752.358	-0.0556664
754.287	-0.0337036
756.216	0.0215407
758.146	0.0860233
760.075	0.0470844
762.004	0.115748
763.933	-0.0494617
765.862	-0.137166
767.791	-0.102141
769.72	-0.00162065
771.649	0.122284
773.579	0.0761035
775.508	0.00393049
777.437	-0.117472
779.366	-0.0912196
781.295	0.00604234
783.224	0.157205
785.153	0.138523
787.082	0.0797925
789.012	0.0545896
790.941	0.0153689
792.87	-0.0362307
794.799	-0.110404
796.728	-0.0599428
798.657	-0.0358092
800.586	0.0239853
802.515	0.0536875
804.445	-0.00619879
806.374	0.047288
808.303	0.0327595
810.232	0.00940345
812.161	-0.0114684
814.09	0.0301928
816.019	0.261778
817.948	0.33334
819.878	0.310441
821.807	0.290785
823.736	0.270308
825.665	0.188585
827.594	0.117369
829.523	0.169332
831.452	0.19572
833.381	0.157375
835.311	0.0401622
837.24	-0.0145906
839.169	-0.0233693
841.098	0.0519346
843.027	0.0669808
844.956	0.0323648
846.885	0.0640414
848.814	0.0468585
850.744	-0.0175677
852.673	-0.0316843
854.602	-0.0260319
856.531	0.00797995
858.46	0.0755956
860.389	0.257111
862.318	0.120744
864.247	0.0846575
866.177	0.0870223
868.106	-0.118716
870.035	-0.159151
871.964	-0.0467749
873.893	0.0338296
875.822	0.164494
877.751	0.115406
879.68	-0.00765188
881.609	0.0702223
883.539	0.189055
885.468	0.272552
887.397	0.131236
889.326	0.0180274
891.255	0.0489136
893.184	-0.0160479
895.113	-0.0561216
897.042	-0.0290447
898.972	-0.0216384
900.901	0.0511898
902.83	0.140155
904.759	0.0896621
906.688	0.0548568
908.617	0.0712036
910.546	0.133434
912.475	0.143439
914.405	0.107324
916.334	-0.076579
918.263	-0.0957507
920.192	0.0643956
922.121	0.177664
924.05	0.0493337
925.979	0.0119998
927.908	0.0267717
929.838	-0.00530545
931.767	-0.00124474
933.696	-0.0259933
935.625	0.0952902
937.554	0.226658
939.483	0.179628
941.412	0.00348164
943.341	-0.0237788
945.271	0.104343
947.2	0.137569
949.129	0.118897
951.058	0.0716987
952.987	0.103441
954.916	0.228486
956.845	0.0524017
958.774	-0.0671701
960.704	0.000778441
962.633	0.0607952
964.562	0.0767247
966.491	-0.014555
968.42	-0.108003
970.349	-0.129555
972.278	-0.0524827
974.207	0.0491199
976.137	-0.0370049
978.066	0.0574603
979.995	0.243645
981.924	0.211744
983.853	0.0839035
985.782	0.00238092
987.711	-0.0993645
989.64	-0.191927
991.57	-0.134191
993.499	-0.0489663
995.428	0.0727491
997.357	0.11875
999.286	0.101474
1001.22	0.251979
1003.14	0.300121
1005.07	0.171717
1007	0.050227
1008.93	0.066916
1010.86	0.103581
1012.79	0.0776139
1014.72	0.0476031
1016.65	0.0900102
1018.58	0.159004
1020.51	0.257497
1022.44	0.373194
1024.36	0.349239
1026.29	0.224854
1028.22	0.162379
1030.15	0.170264
1032.08	0.0656868
1034.01	0.156366
1035.94	0.251287
1037.87	0.346466
1039.8	0.227443
1041.73	0.0859472
1043.66	0.00147152
1045.58	0.0867882
1047.51	0.147007
1049.44	0.222788
1051.37	0.221937
1053.3	0.0313896
1055.23	0.0516707
1057.16	0.0520317
1059.09	0.0886382
1061.02	0.181989
1062.95	0.14627
1064.88	0.260462
1066.81	0.368009
1068.73	0.349374
1070.66	0.243915
1072.59	-0.0540382
1074.52	-0.228146
1076.45	-0.144662
1078.38	0.0547207
1080.31	0.112108
1082.24	0.00178377
1084.17	-0.0173619
1086.1	-0.00631643
1088.03	-0.0257266
1089.95	0.00870657
1091.88	0.0302728
1093.81	0.212591
1095.74	0.388621
1097.67	0.296532
1099.6	0.273439
1101.53	0.248053
1103.46	0.176579
1105.39	0.137839
1107.32	0.0349626
1109.25	-0.0787623
1111.18	-0.10525
1113.1	-0.140241
1115.03	-0.159799
1116.96	-0.0709117
1118.89	0.0162475
1120.82	0.0330467
1122.75	-0.112494
1124.68	-0.0694037
1126.61	-0.0150596
1128.54	0.00817445
1130.47	0.117611
1132.4	0.214071
1134.32	0.36982
1136.25	0.490315
1138.18	0.275687
1140.11	0.117423
1142.04	0.0597351
1143.97	-0.107966
1145.9	-0.171833
1147.83	-0.0324015
1149.76	-0.053557
1151.69	0.065924
1153.62	0.217126
1155.55	0.260191
1157.47	0.247502
1159.4	0.21865
1161.33	0.224126
1163.26	0.267497
1165.19	0.250763
1167.12	0.341702
1169.05	0.204718
1170.98	0.0493809
1172.91	0.0468886
1174.84	0.123303
1176.77	0.168145
1178.69	0.208479
1180.62	0.203308
1182.55	0.0720892
1184.48	-0.0415945
1186.41	-0.0840749
1188.34	0.000971562
1190.27	0.0776383
1192.2	0.0891646
1194.13	0.0992828
1196.06	0.199739
1197.99	0.0980863
1199.91	0.177794
1201.84	0.214747
1203.77	0.226889
1205.7	0.136656
1207.63	0.00124274
1209.56	0.0355006
1211.49	0.120014
1213.42	0.183333
1215.35	0.120554
1217.28	0.205999
1219.21	0.378562
1221.14	0.226785
1223.06	0.209704
1224.99	0.186284
1226.92	0.088799
1228.85	0.0589021
1230.78	0.121556
1232.71	0.0317804
1234.64	-0.148929
1236.57	-0.269846
1238.5	-0.309824
1240.43	-0.144166
1242.36	0.0148253
1244.28	0.0536553
1246.21	0.0142501
1248.14	0.144098
1250.07	0.165755
1252	0.132179
1253.93	0.0717471
1255.86	-0.118158
1257.79	-0.177687
1259.72	-0.111199
1261.65	-0.170969
1263.58	-0.251485
1265.51	-0.180609
1267.43	-0.0787308
1269.36	0.054193
1271.29	-0.0714009
1273.22	-0.17699
1275.15	-0.033914
1277.08	0.0921556
1279.01	0.130092
1280.94	0.0214119
1282.87	-0.0838052
1284.8	-0.0758609
1286.73	-0.0152859
1288.65	-0.023205
1290.58	-0.0230668
1292.51	0.0379512
1294.44	-0.0800375
1296.37	-0.0336517
1298.3	0.201153
1300.23	0.223354
1302.16	0.207674
1304.09	0.213446
1306.02	0.0725686
1307.95	-0.122982
1309.87	-0.0556779
1311.8	0.0127002
1313.73	0.105307
1315.66	0.222682
1317.59	0.298271
1319.52	0.271181
1321.45	0.0951827
1323.38	-0.071176
1325.31	-0.351122
1327.24	-0.217038
1329.17	-0.10082
1331.1	0.0486008
1333.02	0.0144494
1334.95	0.038346
1336.88	-0.0407188
1338.81	-0.151253
1340.74	-0.0439363
1342.67	-0.00140796
1344.6	0.0902315
1346.53	0.267242
1348.46	0.326898
1350.39	0.089924
1352.32	-0.0863171
1354.24	-0.120856
1356.17	-0.0436225
1358.1	0.0556707
1360.03	0.144162
1361.96	0.302809
1363.89	0.315648
1365.82	0.179159
1367.75	0.105838
1369.68	0.0314917
1371.61	-0.0420015
1373.54	-0.0449979
1375.47	0.0125909
1377.39	0.0748626
1379.32	0.0521992
1381.25	0.0842332
1383.18	0.201211
1385.11	0.250651
1387.04	0.0573932
1388.97	-0.0911159
1390.9	-0.101327
1392.83	0.0663487
1394.76	0.299856
1396.69	0.309721
1398.61	0.199964
1400.54	0.116736
1402.47	0.0527412
1404.4	-0.00836252
1406.33	-0.0869083
1408.26	-0.049268
1410.19	0.0282043
1412.12	-0.0489966
1414.05	-0.222093
1415.98	-0.370639
1417.91	-0.21436
1419.83	-0.180231
1421.76	-0.0733092
1423.69	0.00549957
1425.62	-0.0537161
1427.55	-0.0507544
1429.48	-0.000913168
1431.41	0.0501146
1433.34	0.060329
1435.27	-0.00209516
1437.2	-0.0377581
1439.13	-0.0830997
1441.06	-0.142162
1442.98	-0.0674079
1444.91	0.0275658
1446.84	-0.0429477
1448.77	-0.210644
1450.7	-0.225449
1452.63	-0.184267
1454.56	-0.215045
1456.49	-0.153858
1458.42	-0.12352
1460.35	-0.0514927
1462.28	-0.00802789
1464.2	0.0345
1466.13	-0.0527711
1468.06	-0.117687
1469.99	-0.136381
1471.92	-0.0196679
1473.85	0.0388938
1475.78	0.0246791
1477.71	-0.0294363
1479.64	0.127456
1481.57	0.14482
1483.5	0.14788
1485.43	0.259124
1487.35	0.0725895
1489.28	-0.0559727
1491.21	-0.171645
1493.14	-0.0855371
1495.07	-0.00603625
1497	0.112996
1498.93	0.218385
1500.86	0.211789
1502.79	0.142898
1504.72	0.064176
1506.65	0.022324
1508.57	0.0258042
1510.5	0.110437
1512.43	0.221103
1514.36	0.453564
1516.29	0.358001
1518.22	0.205747
1520.15	0.136471
1522.08	0.107
1524.01	-0.0574228
1525.94	-0.159492
1527.87	-0.223526
1529.8	-0.19076
1531.72	-0.0684686
1533.65	0.0226826
1535.58	0.0950035
1537.51	0.0954747
1539.44	0.166769
1541.37	0.272289
1543.3	0.0882401
1545.23	-0.130522
1547.16	-0.188187
1549.09	-0.0884137
1551.02	-0.0205528
1552.94	0.210038
1554.87	0.305374
1556.8	0.170917
1558.73	0.102181
1560.66	0.190432
1562.59	0.175233
1564.52	0.163256
1566.45	0.131164
1568.38	0.178759
1570.31	0.141642
1572.24	0.0965717
1574.16	-0.0500758
1576.09	-0.26155
1578.02	-0.201101
1579.95	-0.0392381
1581.88	0.163949
1583.81	0.287413
1585.74	0.21557
1587.67	0.131576
1589.6	0.0812074
1591.53	0.0938628
1593.46	0.0505352
1595.39	-0.135375
1597.31	-0.283138
1599.24	-0.297171
1601.17	-0.325472
1603.1	-0.282727
1605.03	-0.143186
1606.96	-0.00855044
1608.89	0.152354
1610.82	0.244916
1612.75	0.261075
1614.68	0.211945
1616.61	0.114869
1618.53	-0.0297959
1620.46	-0.0289759
1622.39	0.0248732
1624.32	0.107141
1626.25	0.251756
1628.18	0.218293
1630.11	0.111923
1632.04	0.0808848
1633.97	0.158768
1635.9	0.299312
1637.83	0.166094
1639.76	0.0924553
1641.68	0.117442
1643.61	0.0963055
1645.54	0.135158
1647.47	0.084869
1649.4	0.0498404
1651.33	0.00557928
1653.26	-0.0477845
1655.19	-0.0496701
1657.12	-0.0509837
1659.05	-0.0420183
1660.98	-0.11151
1662.9	-0.192909
1664.83	-0.361649
1666.76	-0.248574
1668.69	0.0632888
1670.62	0.242219
1672.55	0.205014
1674.48	-0.100345
1676.41	-0.233427
1678.34	0.00172928
1680.27	0.0368515
1682.2	0.0463681
1684.12	0.029087
1686.05	0.0752693
1687.98	0.0919977
1689.91	0.0835333
1691.84	-0.0104911
1693.77	-0.0576803
1695.7	0.036282
1697.63	0.057428
1699.56	0.123281
1701.49	0.148947
1703.42	0.00494716
1705.35	-0.0288066
1707.27	0.0244361
1709.2	0.0178485
1711.13	0.096545
1713.06	0.20718
1714.99	0.0947611
1716.92	0.192349
1718.85	0.130934
1720.78	0.0843854
1722.71	0.131812
1724.64	0.210913
1726.57	0.12472
1728.49	-0.0641225
1730.42	-0.190013
1732.35	-0.176649
1734.28	-0.136666
1736.21	-0.0601521
1738.14	-0.0527989
1740.07	0.00198046
1742	0.227667
1743.93	0.38632
1745.86	0.377091
1747.79	0.175041
1749.72	-0.0222651
1751.64	-0.112722
1753.57	0.0259149
1755.5	0.208851
1757.43	0.30899
1759.36	0.218346
1761.29	0.218123
1763.22	0.187901
1765.15	0.202792
1767.08	0.0886859
1769.01	-0.0260834
1770.94	-0.00521242
1772.86	0.0767681
1774.79	0.174991
1776.72	0.196204
1778.65	0.0768247
1780.58	-0.104757
1782.51	-0.200792
1784.44	-0.117051
1786.37	0.0232391
1788.3	0.0880702
1790.23	-0.0352816
1792.16	-0.0619926
1794.08	-0.00676465
1796.01	0.0137727
1797.94	-0.0651538
1799.87	-0.149904
1801.8	-0.214194
1803.73	-0.0448858
1805.66	0.118294
1807.59	0.0743311
1809.52	0.0396954
1811.45	0.0505934
1813.38	0.13726
1815.31	0.0465019
1817.23	-0.0443768
1819.16	-0.169925
1821.09	-0.153791
1823.02	-0.0299895
1824.95	-0.03381
1826.88	-0.0798908
1828.81	-0.0620888
1830.74	0.0448365
1832.67	0.0624215
1834.6	0.0775604
1836.53	0.0755179
1838.45	0.0622293
1840.38	0.0475313
1842.31	-0.0812272
1844.24	-0.404424
1846.17	-0.548589
1848.1	-0.413562
1850.03	-0.266542
1851.96	-0.126903
1853.89	0.00110695
1855.82	0.00867671
1857.75	-0.101685
1859.68	-0.188594
1861.6	-0.279044
1863.53	-0.302497
1865.46	-0.160956
1867.39	-0.203178
1869.32	-0.276733
1871.25	-0.39125
1873.18	-0.152376
1875.11	-0.157081
1877.04	-0.202694
1878.97	-0.165707
1880.9	-0.0641024
1882.82	-0.0276595
1884.75	0.00757624
1886.68	-0.0696377
1888.61	-0.343901
1890.54	-0.479294
1892.47	-0.231635
1894.4	-0.110575
1896.33	-0.0824416
1898.26	0.060935
1900.19	-0.00242577
1902.12	-0.201374
1904.05	-0.241107
1905.97	-0.0599234
1907.9	0.0367167
1909.83	0.0930393
1911.76	0.176476
1913.69	0.119423
1915.62	-0.105514
1917.55	-0.120215
1919.48	-0.0796627
1921.41	-0.165495
1923.34	-0.0451792
1925.27	0.130465
1927.19	0.182086
1929.12	0.205216
1931.05	0.233883
1932.98	0.23796
1934.91	0.288041
1936.84	0.208803
1938.77	0.00587702
1940.7	0.00930599
1942.63	0.0709064
1944.56	0.0142777
1946.49	-0.127196
1948.41	-0.183919
1950.34	0.0115443
1952.27	0.0213265
1954.2	-0.118193
1956.13	-0.21882
1958.06	-0.132061
1959.99	0.082318
1961.92	0.232094
1963.85	0.247796
1965.78	0.243838
1967.71	0.0381518
1969.64	-0.157927
1971.56	-0.211468
1973.49	-0.1741
1975.42	-0.0653529
1977.35	0.104162
1979.28	0.101035
1981.21	0.084993
1983.14	0.0706231
1985.07	0.124513
1987	0.226864
1988.93	0.22956
1990.86	0.110526
1992.78	0.157923
1994.71	0.236109
1996.64	0.163542
1998.57	0.104719
2000.5	0.03491
2002.43	-0.0191705
2004.36	5.73715e-005
2006.29	0.066656
2008.22	-0.145448
2010.15	-0.121264
2012.08	-0.0781869
2014.01	-0.142454
2015.93	0.067677
2017.86	0.102364
2019.79	-0.0570415
2021.72	-0.22379
2023.65	-0.21038
2025.58	-0.0309526
2027.51	0.22122
2029.44	0.382418
2031.37	0.205694
2033.3	0.110366
2035.23	0.07345
2037.15	-0.00558635
2039.08	-0.0556401
2041.01	0.0469889
2042.94	0.278069
2044.87	0.215743
2046.8	0.0716034
2048.73	0.127864
2050.66	0.217282
2052.59	0.21917
2054.52	0.00799279
2056.45	-0.304492
2058.37	-0.118739
2060.3	-0.103875
2062.23	-0.0594384
2064.16	0.0736269
2066.09	0.131991
2068.02	0.101457
2069.95	-0.0495331
2071.88	-0.0659711
2073.81	0.0977647
2075.74	0.263953
2077.67	0.334109
2079.6	0.222388
2081.52	0.159242
2083.45	0.109246
2085.38	0.105502
2087.31	0.161753
2089.24	0.153301
2091.17	-0.0115721
2093.1	-0.118771
2095.03	-0.126913
2096.96	0.174805
2098.89	0.180425
2100.82	0.19241
2102.74	0.230149
2104.67	0.384134
2106.6	0.488019
2108.53	0.492732
2110.46	0.364923
2112.39	0.29622
2114.32	0.275353
2116.25	0.259738
2118.18	0.229161
2120.11	0.199658
2122.04	0.192199
2123.97	0.21024
2125.89	0.239827
2127.82	0.261172
2129.75	0.263997
2131.68	0.254425
2133.61	0.245001
2135.54	0.241541
2137.47	0.241787
2139.4	0.241979
2141.33	0.241129
2143.26	0.239714
2145.19	0.237485
2147.11	0.234162
2149.04	0.23071
2150.97	0.22835
2152.9	0.226994
2154.83	0.22571
2156.76	0.224073
2158.69	0.222089
2160.62	0.219376
2162.55	0.215741
2164.48	0.212505
2166.41	0.21195
2168.33	0.214805
2170.26	0.218929
2172.19	0.220838
2174.12	0.218464
2176.05	0.212624
2177.98	0.206198
2179.91	0.202133
2181.84	0.201757
2183.77	0.204235
2185.7	0.207379
2187.63	0.209344
2189.56	0.209795
2191.48	0.209404
2193.41	0.208537
2195.34	0.207018
2197.27	0.205118
2199.2	0.203898
2201.13	0.204092
2203.06	0.205203
2204.99	0.206321
2206.92	0.207284
2208.85	0.208165
2210.78	0.207965
2212.7	0.205228
2214.63	0.200301
2216.56	0.195729
2218.49	0.193702
2220.42	0.19381
2222.35	0.194132
2224.28	0.19407
2226.21	0.194756
2228.14	0.196651
2230.07	0.198148
2232	0.197358
2233.93	0.19457
2235.85	0.192013
2237.78	0.191094
2239.71	0.190467
2241.64	0.187642
2243.57	0.182255
2245.5	0.176499
2247.43	0.171911
2249.36	0.167291
2251.29	0.161359
2253.22	0.156388
2255.15	0.156423
2257.07	0.161633
2259	0.166907
2260.93	0.167377
2262.86	0.163885
2264.79	0.160922
2266.72	0.160015
2268.65	0.157974
2270.58	0.152093
2272.51	0.144566
2274.44	0.140142
2276.37	0.140337
2278.29	0.141749
2280.22	0.140857
2282.15	0.138728
2284.08	0.139052
2286.01	0.142706
2287.94	0.14654
2289.87	0.147509
2291.8	0.146135
2293.73	0.144878
2295.66	0.144572
2297.59	0.144136
2299.52	0.142889
2301.44	0.141324
2303.37	0.139904
2305.3	0.138704
2307.23	0.138246
2309.16	0.139344
2311.09	0.141688
2313.02	0.143595
2314.95	0.143652
2316.88	0.142024
2318.81	0.139871
2320.74	0.138158
2322.66	0.137382
2324.59	0.137681
2326.52	0.138469
2328.45	0.138427
2330.38	0.13665
2332.31	0.133759
2334.24	0.13139
2336.17	0.130647
2338.1	0.131465
2340.03	0.133313
2341.96	0.135703
2343.89	0.137932
2345.81	0.139217
2347.74	0.139326
2349.67	0.138521
2351.6	0.137228
2353.53	0.135999
2355.46	0.135415
2357.39	0.135729
2359.32	0.136855
2361.25	0.13863
2363.18	0.140612
2365.11	0.142099
2367.03	0.142891
2368.96	0.143592
2370.89	0.144829
2372.82	0.146506
2374.75	0.148093
2376.68	0.149292
2378.61	0.150092
2380.54	0.15038
2382.47	0.149855
2384.4	0.148461
2386.33	0.146738
2388.26	0.145546
2390.18	0.145312
2392.11	0.145625
2394.04	0.145702
2395.97	0.145196
2397.9	0.144383
2399.83	0.143628
2401.76	0.142983
2403.69	0.14238
2405.62	0.141945
2407.55	0.141834
2409.48	0.141905
2411.4	0.141856
2413.33	0.141664
2415.26	0.141587
2417.19	0.141677
2419.12	0.141599
2421.05	0.141114
2422.98	0.140479
2424.91	0.140127
2426.84	0.140133
2428.77	0.140253
2430.7	0.140382
2432.62	0.140623
2434.55	0.140931
2436.48	0.141024
2438.41	0.140748
2440.34	0.140279
2442.27	0.139844
2444.2	0.139497
2446.13	0.13931
2448.06	0.139501
2449.99	0.14011
2451.92	0.140738
2453.85	0.140902
2455.77	0.140586
2457.7	0.140183
2459.63	0.139974
2461.56	0.13995
2463.49	0.140088
2465.42	0.14046
2467.35	0.140997
2469.28	0.141438
2471.21	0.141646
2473.14	0.141799
2475.07	0.142113
2476.99	0.142538
2478.92	0.142844
2480.85	0.142897
2482.78	0.142733
2484.71	0.14245
2486.64	0.142164
2488.57	0.142027
2490.5	0.142164
2492.43	0.142569
2494.36	0.143069
2496.29	0.143436
2498.22	0.143569
2500.14	0.143596
2502.07	0.143703
2504	0.143854
2505.93	0.143795
2507.86	0.143458
2509.79	0.143221
2511.72	0.143555
2513.65	0.14446
2515.58	0.145409
2517.51	0.145833
2519.44	0.14558
2521.36	0.144962
2523.29	0.144523
2525.22	0.144681
2527.15	0.14535
2529.08	0.145966
2531.01	0.146038
2532.94	0.145679
2534.87	0.145405
2536.8	0.14549
2538.73	0.145782
2540.66	0.146086
2542.58	0.146414
2544.51	0.14676
2546.44	0.146918
2548.37	0.146723
2550.3	0.146324
2552.23	0.146072
2554.16	0.146172
2556.09	0.146536
2558.02	0.146921
2559.95	0.147176
2561.88	0.147384
2563.81	0.147758
2565.73	0.148336
2567.66	0.148858
2569.59	0.149038
2571.52	0.148946
2573.45	0.148932
2575.38	0.149175
2577.31	0.149459
2579.24	0.149488
2581.17	0.149295
2583.1	0.149205
2585.03	0.149385
2586.95	0.149617
2588.88	0.149627
2590.81	0.149583
2592.74	0.150038
2594.67	0.151223
2596.6	0.152531
2598.53	0.152956
2600.46	0.152118
2602.39	0.150671
2604.32	0.149632
2606.25	0.149487
2608.18	0.150023
2610.1	0.150805
2612.03	0.151519
2613.96	0.15191
2615.89	0.15186
2617.82	0.151776
2619.75	0.152585
2621.68	0.154747
2623.61	0.157239
2625.54	0.158158
2627.47	0.156746
2629.4	0.154332
2631.32	0.152731
2633.25	0.152292
2635.18	0.152145
2637.11	0.151803
2639.04	0.151488
2640.97	0.151208
2642.9	0.150986
2644.83	0.15206
2646.76	0.156084
2648.69	0.16217
2650.62	0.166189
2652.54	0.164835
2654.47	0.159693
2656.4	0.155285
2658.33	0.153891
2660.26	0.154176
2662.19	0.154202
2664.12	0.15363
2666.05	0.152766
2667.98	0.151857
2669.91	0.152553
2671.84	0.157717
2673.77	0.167376
2675.69	0.175805
2677.62	0.175977
2679.55	0.167883
2681.48	0.1587
2683.41	0.154256
2685.34	0.154072
2687.27	0.154711
2689.2	0.154618
2691.13	0.154072
2693.06	0.153457
2694.99	0.154843
2696.91	0.162656
2698.84	0.178113
2700.77	0.193273
2702.7	0.196049
2704.63	0.18449
2706.56	0.169318
2708.49	0.160395
2710.42	0.158482
2712.35	0.159646
2714.28	0.161346
2716.21	0.162428
2718.14	0.162592
2720.06	0.165754
2721.99	0.178872
2723.92	0.201899
2725.85	0.220915
2727.78	0.219562
2729.71	0.199802
2731.64	0.178713
2733.57	0.167739
2735.5	0.166076
2737.43	0.167979
2739.36	0.169155
2741.28	0.168045
2743.21	0.167778
2745.14	0.176968
2747.07	0.201645
2749	0.233095
2750.93	0.248214
2752.86	0.233504
2754.79	0.203006
2756.72	0.17877
2758.65	0.169264
2760.58	0.169888
2762.51	0.172235
2764.43	0.171308
2766.36	0.16959
2768.29	0.176882
2770.22	0.20226
2772.15	0.240993
2774.08	0.268618
2776.01	0.260851
2777.94	0.225163
2779.87	0.190035
2781.8	0.172725
2783.73	0.171551
2785.65	0.175175
2787.58	0.174888
2789.51	0.172937
2791.44	0.180957
2793.37	0.209059
2795.3	0.25222
2797.23	0.283675
2799.16	0.275154
2801.09	0.23418
2803.02	0.193966
2804.95	0.17492
2806.87	0.174439
2808.8	0.178005
2810.73	0.176222
2812.66	0.17493
2814.59	0.188346
2816.52	0.223634
2818.45	0.268436
2820.38	0.290955
2822.31	0.269856
2824.24	0.224155
2826.17	0.187708
2828.1	0.174712
2830.02	0.176839
2831.95	0.178368
2833.88	0.175189
2835.81	0.179127
2837.74	0.202945
2839.67	0.243846
2841.6	0.27773
2843.53	0.276044
2845.46	0.24026
2847.39	0.200241
2849.32	0.178759
2851.24	0.176061
2853.17	0.178406
2855.1	0.176589
2857.03	0.176954
2858.96	0.191599
2860.89	0.221174
2862.82	0.248226
2864.75	0.250552
2866.68	0.226877
2868.61	0.197532
2870.54	0.179789
2872.47	0.175384
2874.39	0.176308
2876.32	0.176112
2878.25	0.174815
2880.18	0.174658
2882.11	0.175586
2884.04	0.176183
2885.97	0.176119
2887.9	0.176087
2889.83	0.176684
2891.76	0.177949
2893.69	0.178943
2895.61	0.178684
2897.54	0.179933
2899.47	0.190519
2901.4	0.215855
2903.33	0.247279
2905.26	0.261518
2907.19	0.244846
2909.12	0.213284
2911.05	0.191278
2912.98	0.185578
2914.91	0.18666
2916.83	0.18806
2918.76	0.198771
2920.69	0.230597
2922.62	0.27576
2924.55	0.301094
2926.48	0.281799
2928.41	0.238076
2930.34	0.20483
2932.27	0.193023
2934.2	0.192456
2936.13	0.19518
2938.06	0.209774
2939.98	0.247408
2941.91	0.29651
2943.84	0.318025
2945.77	0.289602
2947.7	0.240676
2949.63	0.207374
2951.56	0.196326
2953.49	0.196327
2955.42	0.203797
2957.35	0.229152
2959.28	0.275367
2961.2	0.316132
2963.13	0.312683
2965.06	0.268955
2966.99	0.225031
2968.92	0.203
2970.85	0.198525
2972.78	0.204079
2974.71	0.224253
2976.64	0.26324
2978.57	0.302395
2980.5	0.306812
2982.43	0.271736
2984.35	0.229975
2986.28	0.205877
2988.21	0.200003
2990.14	0.206594
2992.07	0.226827
2994	0.25973
2995.93	0.287076
2997.86	0.284505
2999.79	0.254391
3001.72	0.222176
3003.65	0.204503
3005.57	0.20241
3007.5	0.213474
3009.43	0.236613
3011.36	0.2634
3013.29	0.274675
3015.22	0.259491
3017.15	0.230996
3019.08	0.209485
3021.01	0.203366
3022.94	0.210538
3024.87	0.226359
3026.79	0.244852
3028.72	0.255913
3030.65	0.25062
3032.58	0.232159
3034.51	0.213704
3036.44	0.205424
3038.37	0.208724
3040.3	0.219178
3042.23	0.230208
3044.16	0.235072
3046.09	0.230261
3048.02	0.219277
3049.94	0.210445
3051.87	0.209752
3053.8	0.216597
3055.73	0.225303
3057.66	0.22987
3059.59	0.228157
3061.52	0.222565
3063.45	0.217483
3065.38	0.215958
3067.31	0.217834
3069.24	0.220574
3071.16	0.221851
3073.09	0.221221
3075.02	0.219727
3076.95	0.218741
3078.88	0.219127
3080.81	0.220653
3082.74	0.221951
3084.67	0.221645
3086.6	0.219814
3088.53	0.218053
3090.46	0.218045
3092.39	0.220262
3094.31	0.223748
3096.24	0.226755
3098.17	0.227849
3100.1	0.226978
3102.03	0.225485
3103.96	0.224781
3105.89	0.225125
3107.82	0.225949
3109.75	0.226996
3111.68	0.228524
3113.61	0.230512
3115.53	0.232347
3117.46	0.233519
3119.39	0.234091
3121.32	0.23423
3123.25	0.233822
3125.18	0.232977
3127.11	0.232449
3129.04	0.232895
3130.97	0.233839
3132.9	0.233969
3134.83	0.232717
3136.75	0.231103
3138.68	0.230643
3140.61	0.231688
3142.54	0.233212
3144.47	0.234124
3146.4	0.234417
3148.33	0.234837
3150.26	0.235771
3152.19	0.236863
3154.12	0.237591
3156.05	0.237881
3157.98	0.238069
3159.9	0.23855
3161.83	0.239523
3163.76	0.240877
3165.69	0.242203
3167.62	0.243116
3169.55	0.2437
3171.48	0.244461
3173.41	0.245667
3175.34	0.246897
3177.27	0.247491
3179.2	0.247397
3181.12	0.247296
3183.05	0.247778
3184.98	0.248651
3186.91	0.249263
3188.84	0.249415
3190.77	0.249709
3192.7	0.250855
3194.63	0.252732
3196.56	0.254339
3198.49	0.254793
3200.42	0.254299
3202.35	0.253929
3204.27	0.254497
3206.2	0.255831
3208.13	0.257167
3210.06	0.258122
3211.99	0.25909
3213.92	0.260559
3215.85	0.26218
3217.78	0.262884
3219.71	0.262146
3221.64	0.260916
3223.57	0.260783
3225.49	0.262194
3227.42	0.263954
3229.35	0.264647
3231.28	0.264185
3233.21	0.263534
3235.14	0.263358
3237.07	0.263682
3239	0.264633
3240.93	0.266441
3242.86	0.268425
3244.79	0.268967
3246.72	0.267416
3248.64	0.265442
3250.57	0.265472
3252.5	0.267935
3254.43	0.27078
3256.36	0.271906
3258.29	0.271396
3260.22	0.27077
3262.15	0.270762
3264.08	0.270847
3266.01	0.270754
3267.94	0.271353
3269.86	0.273462
3271.79	0.276393
3273.72	0.278465
3275.65	0.278947
3277.58	0.278691
3279.51	0.278579
3281.44	0.278306
3283.37	0.277315
3285.3	0.276187
3287.23	0.276107
3289.16	0.277157
3291.08	0.278131
3293.01	0.278232
3294.94	0.278027
3296.87	0.278229
3298.8	0.278451
3300.73	0.278078
3302.66	0.27784
3304.59	0.279288
3306.52	0.282565
3308.45	0.28558
3310.38	0.285987
3312.31	0.283669
3314.23	0.280615
3316.16	0.278795
3318.09	0.278886
3320.02	0.280547
3321.95	0.282903
3323.88	0.284695
3325.81	0.28493
3327.74	0.28409
3329.67	0.284135
3331.6	0.286429
3333.53	0.289794
3335.45	0.291293
3337.38	0.289413
3339.31	0.285836
3341.24	0.283433
3343.17	0.283288
3345.1	0.284297
3347.03	0.285211
3348.96	0.286272
3350.89	0.288437
3352.82	0.291603
3354.75	0.294423
3356.68	0.295861
3358.6	0.296359
3360.53	0.297107
3362.46	0.298387
3364.39	0.299034
3366.32	0.29768
3368.25	0.294434
3370.18	0.290982
3372.11	0.288958
3374.04	0.288591
3375.97	0.289089
3377.9	0.289948
3379.82	0.29125
3381.75	0.292726
3383.68	0.29351
3385.61	0.293458
3387.54	0.293962
3389.47	0.29639
3391.4	0.299924
3393.33	0.30192
3395.26	0.300818
3397.19	0.297827
3399.12	0.295063
3401.04	0.293109
3402.97	0.29124
3404.9	0.289319
3406.83	0.288252
3408.76	0.288448
3410.69	0.289015
3412.62	0.289308
3414.55	0.290607
3416.48	0.294813
3418.41	0.301188
3420.34	0.305442
3422.27	0.303761
3424.19	0.29753
3426.12	0.291746
3428.05	0.289487
3429.98	0.289867
3431.91	0.290615
3433.84	0.291046
3435.77	0.291919
3437.7	0.293849
3439.63	0.297303
3441.56	0.302959
3443.49	0.309931
3445.41	0.313919
3447.34	0.310204
3449.27	0.299857
3451.2	0.289636
3453.13	0.28521
3455.06	0.286989
3456.99	0.291493
3458.92	0.2951
3460.85	0.296203
3462.78	0.294798
3464.71	0.291807
3466.64	0.288733
3468.56	0.286445
3470.49	0.284408
3472.42	0.282213
3474.35	0.28148
3476.28	0.28465
3478.21	0.291677
3480.14	0.298969
3482.07	0.302274
3484	0.300356
3485.93	0.295215
3487.86	0.289546
3489.78	0.28501
3491.71	0.282311
3493.64	0.282268
3495.57	0.286734
3497.5	0.297466
3499.43	0.312506
3501.36	0.323932
3503.29	0.323501
3505.22	0.31294
3507.15	0.301635
3509.08	0.294104
3511	0.286756
3512.93	0.276519
3514.86	0.267837
3516.79	0.268169
3518.72	0.280704
3520.65	0.302775
3522.58	0.327175
3524.51	0.342586
3526.44	0.337701
3528.37	0.313962
3530.3	0.287648
3532.23	0.272389
3534.15	0.267969
3536.08	0.265804
3538.01	0.263239
3539.94	0.268729
3541.87	0.289564
3543.8	0.317719
3545.73	0.330635
3547.66	0.317901
3549.59	0.295256
3551.52	0.278556
3553.45	0.268732
3555.37	0.261098
3557.3	0.25679
3559.23	0.262639
3561.16	0.284498
3563.09	0.322174
3565.02	0.360326
3566.95	0.363873
3568.88	0.323082
3570.81	0.274795
3572.74	0.245511
3574.67	0.237063
3576.6	0.239345
3578.52	0.241686
3580.45	0.246163
3582.38	0.264572
3584.31	0.301183
3586.24	0.336535
3588.17	0.338938
3590.1	0.316526
3592.03	0.300659
3593.96	0.298739
3595.89	0.296595
3597.82	0.281199
3599.74	0.25937
3601.67	0.247164
3603.6	0.253227
3605.53	0.278323
3607.46	0.315523
3609.39	0.346255
3611.32	0.354587
3613.25	0.348995
3615.18	0.343207
3617.11	0.331365
3619.04	0.299802
3620.97	0.260485
3622.89	0.237736
3624.82	0.241044
3626.75	0.266765
3628.68	0.291297
3630.61	0.281986
3632.54	0.248958
3634.47	0.216455
3636.4	0.191687
3638.33	0.177204
3640.26	0.176087
3642.19	0.189759
3644.11	0.220593
3646.04	0.273592
3647.97	0.334952
3649.9	0.348434
3651.83	0.305387
3653.76	0.254014
3655.69	0.213746
3657.62	0.18223
3659.55	0.155139
3661.48	0.134181
3663.41	0.125868
3665.33	0.13734
3667.26	0.171983
3669.19	0.221205
3671.12	0.264458
3673.05	0.287609
3674.98	0.284897
3676.91	0.253291
3678.84	0.210026
3680.77	0.179249
3682.7	0.170242
3684.63	0.181977
3686.56	0.20541
3688.48	0.21787
3690.41	0.201284
3692.34	0.172131
3694.27	0.153339
3696.2	0.150504
3698.13	0.15797
3700.06	0.164153
3701.99	0.162623
3703.92	0.163375
3705.85	0.179979
3707.78	0.214639
3709.7	0.2457
3711.63	0.237525
3713.56	0.201439
3715.49	0.173268
3717.42	0.167132
3719.35	0.184044
3721.28	0.216048
3723.21	0.241295
3725.14	0.240852
3727.07	0.226755
3729	0.225517
3730.93	0.255172
3732.85	0.315854
3734.78	0.36
3736.71	0.339709
3738.64	0.297577
3740.57	0.275098
3742.5	0.282226
3744.43	0.315956
3746.36	0.357943
3748.29	0.376273
3750.22	0.34828
3752.15	0.292878
3754.07	0.246858
3756	0.218648
3757.93	0.195991
3759.86	0.170353
3761.79	0.149205
3763.72	0.144354
3765.65	0.154739
3767.58	0.162325
3769.51	0.147355
3771.44	0.117974
3773.37	0.096705
3775.29	0.0925656
3777.22	0.10124
3779.15	0.111587
3781.08	0.114723
3783.01	0.110415
3784.94	0.101144
3786.87	0.0882637
3788.8	0.076477
3790.73	0.0746349
3792.66	0.089914
3794.59	0.122827
3796.52	0.164837
3798.44	0.199541
3800.37	0.214038
3802.3	0.208698
3804.23	0.188374
3806.16	0.15794
3808.09	0.128371
3810.02	0.112748
3811.95	0.119153
3813.88	0.149779
3815.81	0.197906
3817.74	0.240309
3819.66	0.248586
3821.59	0.224644
3823.52	0.192469
3825.45	0.166624
3827.38	0.152113
3829.31	0.152282
3831.24	0.169746
3833.17	0.204183
3835.1	0.249444
3837.03	0.287611
3838.96	0.290235
3840.89	0.249835
3842.81	0.19599
3844.74	0.158759
3846.67	0.149956
3848.6	0.173724
3850.53	0.231625
3852.46	0.290162
3854.39	0.273408
3856.32	0.216575
3858.25	0.184132
3860.18	0.183612
3862.11	0.203172
3864.03	0.222099
3865.96	0.227303
3867.89	0.22525
3869.82	0.219077
3871.75	0.198602
3873.68	0.165922
3875.61	0.141423
3877.54	0.140567
3879.47	0.164061
3881.4	0.192695
3883.33	0.19761
3885.25	0.178792
3887.18	0.161036
3889.11	0.155543
3891.04	0.153719
3892.97	0.147176
3894.9	0.143523
3896.83	0.15747
3898.76	0.195524
3900.69	0.239372
3902.62	0.240208
3904.55	0.185883
3906.48	0.12111
3908.4	0.0760291
3910.33	0.0581583
3912.26	0.0671154
3914.19	0.0954001
3916.12	0.124934
3918.05	0.137297
3919.98	0.13225
3921.91	0.121203
3923.84	0.111312
3925.77	0.106345
3927.7	0.109846
3929.62	0.118744
3931.55	0.118909
3933.48	0.100562
3935.41	0.076069
3937.34	0.0643829
3939.27	0.0712286
3941.2	0.0881442
3943.13	0.102233
3945.06	0.108763
3946.99	0.109275
3948.92	0.101549
3950.85	0.0837546
3952.77	0.0635832
3954.7	0.0518821
3956.63	0.0513819
3958.56	0.0554218
3960.49	0.0554133
3962.42	0.0497127
3964.35	0.043548
3966.28	0.0417957
3968.21	0.0450643
3970.14	0.0506324
3972.07	0.0546229
3973.99	0.0541126
3975.92	0.0489592
3977.85	0.0417133
3979.78	0.0354026
3981.71	0.0318615
3983.64	0.0318153
3985.57	0.0351702
3987.5	0.0404525
3989.43	0.0445524
3991.36	0.044353
3993.29	0.039445
3995.22	0.0327372
3997.14	0.0278204
3999.07	0.0261221
4001	0.0265727
4002.93	0.0272671
4004.86	0.0269905
4006.79	0.0254079
4008.72	0.0227044
4010.65	0.0197314
4012.58	0.0180787
4014.51	0.0190598
4016.44	0.0222807
4018.36	0.0256265
4020.29	0.0272709
4022.22	0.027315
4024.15	0.026826
4026.08	0.0260502
4028.01	0.0245567
4029.94	0.0227132
4031.87	0.0217311
4033.8	0.0220424
4035.73	0.0226845
4037.66	0.0228363
4039.58	0.0230101
4041.51	0.0238393
4043.44	0.0244475
4045.37	0.0233022
4047.3	0.0205459
4049.23	0.0180409
4051.16	0.0169542
4053.09	0.0165012
4055.02	0.0154562
4056.95	0.0140082
4058.88	0.0133123
4060.81	0.01377
4062.73	0.0147139
4064.66	0.0155786
4066.59	0.0164427
4068.52	0.0172957
4070.45	0.017634
4072.38	0.0172577
4074.31	0.0169117
4076.24	0.0175037
4078.17	0.0188392
4080.1	0.0196692
4082.03	0.0190598
4083.95	0.0172999
4085.88	0.0154151
4087.81	0.0142728
4089.74	0.0142538
4091.67	0.0152063
4093.6	0.0163408
4095.53	0.0166405
4097.46	0.0160146
4099.39	0.0158382
4101.32	0.0175506
4103.25	0.0205537
4105.18	0.0222576
4107.1	0.0207265
4109.03	0.0168074
4110.96	0.0130648
4112.89	0.0112356
4114.82	0.0114601
4116.75	0.013209
4118.68	0.0157269
4120.61	0.0176959
4122.54	0.01776
4124.47	0.0160907
4126.4	0.0147352
4128.32	0.0155379
4130.25	0.0180276
4132.18	0.019985
4134.11	0.0198498
4136.04	0.0180109
4137.97	0.0158137
4139.9	0.0141375
4141.83	0.0132964
4143.76	0.0134887
4145.69	0.0145056
4147.62	0.0153209
4149.54	0.0148966
4151.47	0.0135737
4153.4	0.0129479
4155.33	0.0140104
4157.26	0.0159035
4159.19	0.0169037
4161.12	0.0162621
4163.05	0.0146523
4164.98	0.0132015
4166.91	0.0127051
4168.84	0.0135457
4170.77	0.0155304
4172.69	0.0175874
4174.62	0.0182821
4176.55	0.0170765
4178.48	0.0147969
4180.41	0.0127033
4182.34	0.0114527
4184.27	0.0111154
4186.2	0.011672
4188.13	0.0129105
4190.06	0.0139993
4191.99	0.0138608
4193.91	0.012376
4195.84	0.0109233
4197.77	0.0112094
4199.7	0.013426
4201.63	0.0157894
4203.56	0.0163169
4205.49	0.0150792
4207.42	0.0141219
4209.35	0.0149199
4211.28	0.0165296
4213.21	0.0168685
4215.14	0.0153717
4217.06	0.0134644
4218.99	0.0125164
4220.92	0.0123298
4222.85	0.0119529
4224.78	0.0112074
4226.71	0.0108232
4228.64	0.0113812
4230.57	0.0126596
4232.5	0.0139494
4234.43	0.0146874
4236.36	0.0148222
4238.28	0.0146328
4240.21	0.0141375
4242.14	0.0129751
4244.07	0.0112647
4246	0.0102357
4247.93	0.0111063
4249.86	0.0132748
4251.79	0.0146213
4253.72	0.0140564
4255.65	0.012891
4257.58	0.0129439
4259.5	0.0140363
4261.43	0.0144347
4263.36	0.0134154
4265.29	0.0122009
4267.22	0.0121216
4269.15	0.0127778
4271.08	0.0127387
4273.01	0.0116045
4274.94	0.0105954
4276.87	0.0110297
4278.8	0.0125901
4280.73	0.0134343
4282.65	0.0120662
4284.58	0.00897691
4286.51	0.00639866
4288.44	0.00637856
4290.37	0.00907036
4292.3	0.0127704
4294.23	0.0152803
4296.16	0.0153501
4298.09	0.0134105
4300.02	0.0111952
4301.95	0.0103365
4303.87	0.0109368
4305.8	0.0115671
4307.73	0.0108579
4309.66	0.00888521
4311.59	0.00678152
4313.52	0.00528783
4315.45	0.00422521
4317.38	0.00339509
4319.31	0.00336303
4321.24	0.00488371
4323.17	0.00770752
4325.1	0.0103736
4327.02	0.0114213
4328.95	0.010882
4330.88	0.0104843
4332.81	0.0120236
4334.74	0.0153271
4336.67	0.0181205
4338.6	0.0181803
4340.53	0.0154978
4342.46	0.0120553
4344.39	0.00957015
4346.32	0.00811694
4348.24	0.00714245
4350.17	0.00687109
4352.1	0.00787763
4354.03	0.00969522
4355.96	0.0107763
4357.89	0.00991782
4359.82	0.00730819
4361.75	0.0042307
4363.68	0.00214722
4365.61	0.00205757
4367.54	0.00402342
4369.46	0.00685768
4371.39	0.00881568
4373.32	0.00910028
4375.25	0.00838953
4377.18	0.0077351
4379.11	0.00749507
4381.04	0.00765564
4382.97	0.00848228
4384.9	0.0100314
4386.83	0.0113522
4388.76	0.011101
4390.69	0.00902841
4392.61	0.00631351
4394.54	0.00441957
4396.47	0.00402099
4398.4	0.00495654
4400.33	0.00656326
4402.26	0.00785325
4404.19	0.00799102
4406.12	0.00701484
4408.05	0.00582186
4409.98	0.0052572
4411.91	0.0055339
4413.83	0.00662179
4415.76	0.00851437
4417.69	0.0106467
4419.62	0.0116883
4421.55	0.010795
4423.48	0.00887787
4425.41	0.00788913
4427.34	0.00875657
4429.27	0.0104777
4431.2	0.0114502
4433.13	0.0111989
4435.06	0.0104519
4436.98	0.00997589
4438.91	0.00987622
4440.84	0.00997656
4442.77	0.0103064
4444.7	0.0108371
4446.63	0.0110812
4448.56	0.0105563
4450.49	0.00967285
4452.42	0.0095485
4454.35	0.0105888
4456.28	0.0117205
4458.2	0.0116141
4460.13	0.0103868
4462.06	0.00932985
4463.99	0.00901551
4465.92	0.00864297
4467.85	0.00761343
4469.78	0.00686318
4471.71	0.00779942
4473.64	0.0102508
4475.57	0.0124007
4477.5	0.0127007
4479.43	0.0111516
4481.35	0.00885419
4483.28	0.00693886
4485.21	0.00603103
4487.14	0.00620707
4489.07	0.00700525
4491	0.00770161
4492.93	0.00800033
4494.86	0.0083648
4496.79	0.00934415
4498.72	0.0106727
4500.65	0.0114498
4502.57	0.0113278
4504.5	0.0110799
4506.43	0.0115284
4508.36	0.0121535
4510.29	0.0114611
4512.22	0.00900235
4514.15	0.00648086
4516.08	0.00614483
4518.01	0.00822699
4519.94	0.0107818
4521.87	0.0121214
4523.79	0.0123596
4525.72	0.0122115
4527.65	0.0115489
4529.58	0.0101286
4531.51	0.00882498
4533.44	0.00862685
4535.37	0.00880669
4537.3	0.0077601
4539.23	0.00567861
4541.16	0.00474704
4543.09	0.0062573
4545.02	0.00890401
4546.94	0.0108742
4548.87	0.0122414
4550.8	0.0138224
4552.73	0.0148918
4554.66	0.0139031
4556.59	0.011057
4558.52	0.00829144
4560.45	0.00677236
4562.38	0.00604035
4564.31	0.00569263
4566.24	0.00617859
4568.16	0.00730847
4570.09	0.00752509
4572.02	0.00576636
4573.95	0.00310927
4575.88	0.00153432
4577.81	0.0017466
4579.74	0.00312923
4581.67	0.00508519
4583.6	0.00728235
4585.53	0.00906472
4587.46	0.00984807
4589.39	0.00996654
4591.31	0.0101376
4593.24	0.01019
4595.17	0.00922106
4597.1	0.00705515
4599.03	0.00471685
4600.96	0.00332505
4602.89	0.00319406
4604.82	0.00405602
4606.75	0.00537099
4608.68	0.00619553
4610.61	0.00557927
4612.53	0.00370049
4614.46	0.00219569
4616.39	0.00274125
4618.32	0.00535911
4620.25	0.00845484
4622.18	0.0103255
4624.11	0.0103542
4626.04	0.00912832
4627.97	0.00789264
4629.9	0.00774501
4631.83	0.00887099
4633.75	0.0104113
4635.68	0.0112811
4637.61	0.0111711
4639.54	0.0106584
4641.47	0.0104261
4643.4	0.010565
4645.33	0.0106803
4647.26	0.0105133
4649.19	0.0103253
4651.12	0.0106115
4653.05	0.0113628
4654.98	0.0117695
4656.9	0.0110414
4658.83	0.00971219
4660.76	0.00968626
4662.69	0.0122893
4664.62	0.0162616
4666.55	0.018345
4668.48	0.0163464
4670.41	0.0112813
4672.34	0.00616743
4674.27	0.00326811
4676.2	0.0028839
4678.12	0.00417736
4680.05	0.00607475
4681.98	0.00732731
4683.91	0.00704728
4685.84	0.00597918
4687.77	0.00624436
4689.7	0.00874152
4691.63	0.0114317
4693.56	0.0114466
4695.49	0.00884916
4697.42	0.0069705
4699.35	0.00836423
4701.27	0.0113655
4703.2	0.0118452
4705.13	0.00830883
4707.06	0.00398895
4708.99	0.00332525
4710.92	0.00707603
4712.85	0.0115526
4714.78	0.0126666
4716.71	0.0100353
4718.64	0.00687737
4720.57	0.00658002
4722.49	0.00955439
4724.42	0.0130417
4726.35	0.0137679
4728.28	0.0109473
4730.21	0.00710067
4732.14	0.00573465
4734.07	0.00769085
4736	0.0103188
4737.93	0.0109504
4739.86	0.0103173
4741.79	0.0111491
4743.71	0.0138874
4745.64	0.0158349
4747.57	0.0147619
4749.5	0.0113966
4751.43	0.00771278
4753.36	0.00454438
4755.29	0.00222319
4757.22	0.00192262
4759.15	0.00417905
4761.08	0.00690463
4763.01	0.00719641
4764.94	0.00495322
4766.86	0.00286251
4768.79	0.00294765
4770.72	0.00477381
4772.65	0.00712393
4774.58	0.00939781
4776.51	0.0107681
4778.44	0.0100154
4780.37	0.00736953
4782.3	0.00503899
4784.23	0.00480038
4786.16	0.00614373
4788.08	0.00774515
4790.01	0.00959118
4791.94	0.0121373
4793.87	0.0142688
4795.8	0.014038
4797.73	0.0114968
4799.66	0.00922844
4801.59	0.00951416
4803.52	0.0119362
4805.45	0.0140009
4807.38	0.0133229
4809.31	0.00926281
4811.23	0.00348867
4813.16	-0.000780557
4815.09	-0.00105357
4817.02	0.00230828
4818.95	0.00670182
4820.88	0.00996281
4822.81	0.0115718
4824.74	0.0114403
4826.67	0.00925103
4828.6	0.00589587
4830.53	0.00408039
4832.45	0.00563466
4834.38	0.00862684
4836.31	0.00906414
4838.24	0.00566206
4840.17	0.00135888
4842.1	-0.000219921
4844.03	0.00155135
4845.96	0.00475507
4847.89	0.00759015
4849.82	0.00905569
4851.75	0.00804671
4853.68	0.00399883
4855.6	-0.00140197
4857.53	-0.00485033
4859.46	-0.00450102
4861.39	-0.00155666
4863.32	0.0016636
4865.25	0.00424948
4867.18	0.00650879
4869.11	0.00824934
4871.04	0.00869025
4872.97	0.00788114
4874.9	0.00693612
4876.82	0.00667751
4878.75	0.00697299
4880.68	0.00749666
4882.61	0.00816977
4884.54	0.0085737
4886.47	0.00795478
4888.4	0.00645458
4890.33	0.00544397
4892.26	0.00576845
4894.19	0.00636582
4896.12	0.00567891
4898.04	0.00395447
4899.97	0.00273918
4901.9	0.0022372
4903.83	0.000972582
4905.76	-0.00143592
4907.69	-0.00286371
4909.62	-0.0013815
4911.55	0.00172966
4913.48	0.00344925
4915.41	0.00295341
4917.34	0.00229232
4919.27	0.00296497
4921.19	0.00368496
4923.12	0.00254464
4925.05	5.90813e-006
4926.98	-0.0016368
4928.91	-0.00126844
4930.84	4.97295e-005
4932.77	0.00104337
4934.7	0.00177395
4936.63	0.00285297
4938.56	0.00416781
4940.49	0.00527907
4942.41	0.00665787
4944.34	0.00943806
4946.27	0.0136191
4948.2	0.0172928
4950.13	0.0182977
4952.06	0.0165497
4953.99	0.0142316
4955.92	0.013289
4957.85	0.0132631
4959.78	0.0122665
4961.71	0.00968989
4963.64	0.00702389
4965.56	0.00589479
4967.49	0.00624298
4969.42	0.00696743
4971.35	0.00755329
4973.28	0.0080801
4975.21	0.00804679
4977.14	0.00656424
4979.07	0.00411517
4981	0.00297394
4982.93	0.00476796
4984.86	0.00821503
4986.78	0.0103829
4988.71	0.0100619
4990.64	0.00892327
4992.57	0.00909896
4994.5	0.0106658
4996.43	0.0122035
4998.36	0.0129638
