##TITLE=3 atr ethanol
##$NOTE=11.03.2023 11:33:3 ^0 x10 v:1
##$ITAB=-1,-1
##FIRSTX=499.643
##DELTAX=1.92912
##NPOINTS=2333
##XUNITS=1/CM
##YUNITS=ABSORBANCE
499.643	0.111605
501.572	0.101535
503.501	0.100492
505.43	0.102096
507.36	0.0938347
509.289	0.088427
511.218	0.0901168
513.147	0.0871126
515.076	0.112473
517.005	0.115871
518.934	0.127266
520.863	0.141889
522.792	0.152419
524.722	0.156435
526.651	0.157031
528.58	0.159225
530.509	0.160934
532.438	0.161561
534.367	0.161869
536.296	0.161657
538.225	0.16097
540.155	0.16195
542.084	0.166377
544.013	0.171692
545.942	0.172456
547.871	0.167069
549.8	0.159953
551.729	0.155815
553.658	0.154903
555.588	0.154974
557.517	0.15549
559.446	0.15736
561.375	0.15946
563.304	0.158868
565.233	0.155383
567.162	0.152969
569.091	0.154746
571.021	0.158599
572.95	0.159996
574.879	0.157563
576.808	0.153866
578.737	0.151612
580.666	0.151565
582.595	0.154043
584.524	0.159586
586.454	0.167264
588.383	0.173842
590.312	0.175898
592.241	0.17306
594.17	0.168682
596.099	0.166885
598.028	0.169091
599.957	0.17321
601.887	0.175829
603.816	0.175272
605.745	0.172646
607.674	0.17009
609.603	0.168613
611.532	0.167917
613.461	0.16784
615.39	0.169142
617.32	0.172335
619.249	0.176068
621.178	0.177511
623.107	0.174862
625.036	0.169374
626.965	0.164609
628.894	0.163407
630.823	0.165651
632.753	0.168935
634.682	0.170842
636.611	0.170534
638.54	0.168611
640.469	0.166163
642.398	0.16429
644.327	0.163723
646.256	0.16413
648.186	0.164126
650.115	0.162589
652.044	0.159956
653.973	0.157487
655.902	0.155649
657.831	0.154303
659.76	0.153738
661.689	0.154342
663.619	0.155605
665.548	0.156113
667.477	0.154547
669.406	0.151882
671.335	0.150454
673.264	0.150131
675.193	0.149463
677.122	0.147883
679.052	0.146099
680.981	0.144923
682.91	0.144111
684.839	0.143064
686.768	0.141885
688.697	0.141065
690.626	0.140559
692.555	0.139898
694.485	0.138985
696.414	0.138111
698.343	0.137127
700.272	0.135305
702.201	0.13235
704.13	0.129124
706.059	0.126865
707.988	0.125884
709.917	0.125443
711.847	0.124762
713.776	0.123756
715.705	0.122718
717.634	0.121728
719.563	0.120592
721.492	0.119148
723.421	0.117426
725.35	0.11559
727.28	0.113867
729.209	0.112416
731.138	0.11112
733.067	0.10967
734.996	0.107986
736.925	0.106457
738.854	0.105528
740.783	0.105134
742.713	0.104721
744.642	0.10383
746.571	0.10248
748.5	0.100952
750.429	0.0994269
752.358	0.0979598
754.287	0.0966879
756.216	0.0958048
758.146	0.0952303
760.075	0.0944585
762.004	0.0929702
763.933	0.0908735
765.862	0.0889656
767.791	0.0879535
769.72	0.0876667
771.649	0.0872558
773.579	0.0861868
775.508	0.0848054
777.437	0.083794
779.366	0.0832877
781.295	0.0828051
783.224	0.0819912
785.153	0.0811107
787.082	0.0806604
789.012	0.0806739
790.941	0.0806682
792.87	0.0803324
794.799	0.0800722
796.728	0.0806478
798.657	0.0822399
800.586	0.0840141
802.515	0.0847266
804.445	0.0837136
806.374	0.0812168
808.303	0.0779126
810.232	0.0743697
812.161	0.07094
814.09	0.0678775
816.019	0.0653097
817.948	0.0631242
819.878	0.0610708
821.807	0.0590618
823.736	0.0573234
825.665	0.056191
827.594	0.0557392
829.523	0.0556272
831.452	0.0553317
833.381	0.0545689
835.311	0.053514
837.24	0.0525901
839.169	0.0520222
841.098	0.0516267
843.027	0.0510698
844.956	0.0503028
846.885	0.0496586
848.814	0.0495017
850.744	0.0498804
852.673	0.0505918
854.602	0.0515055
856.531	0.0526908
858.46	0.0542833
860.389	0.0564695
862.318	0.0597087
864.247	0.0648164
866.177	0.072737
868.106	0.0844376
870.035	0.101146
871.964	0.124145
873.893	0.153158
875.822	0.183887
877.751	0.207427
879.68	0.214557
881.609	0.202774
883.539	0.178013
885.468	0.149058
887.397	0.122076
889.326	0.0995963
891.255	0.0819993
893.184	0.0688734
895.113	0.0594983
897.042	0.052913
898.972	0.0480881
900.901	0.0442202
902.83	0.0408828
904.759	0.0379412
906.688	0.0353981
908.617	0.0333103
910.546	0.0317254
912.475	0.030578
914.405	0.0296596
916.334	0.0287719
918.263	0.027909
920.192	0.0272209
922.121	0.0267922
924.05	0.0265226
925.979	0.0262362
927.908	0.0258468
929.838	0.0254132
931.767	0.0250944
933.696	0.0250472
935.625	0.0252793
937.554	0.0255899
939.483	0.0257483
941.412	0.0257564
943.341	0.0258265
945.271	0.0260547
947.2	0.0262437
949.129	0.026167
951.058	0.0259268
952.987	0.0258888
954.916	0.026264
956.845	0.0268931
958.774	0.0274776
960.704	0.0278951
962.633	0.0282024
964.562	0.0284306
966.491	0.0285455
968.42	0.0286248
970.349	0.0289244
972.278	0.0296389
974.207	0.0306222
976.137	0.0314595
978.066	0.0318836
979.995	0.0320951
981.924	0.0326136
983.853	0.0337908
985.782	0.035478
987.711	0.037179
989.64	0.0385303
991.57	0.0396306
993.499	0.0409062
995.428	0.0426763
997.357	0.0448766
999.286	0.0472065
1001.22	0.0495035
1003.14	0.0519393
1005.07	0.0548585
1007	0.0584597
1008.93	0.0626545
1010.86	0.0672407
1012.79	0.0722166
1014.72	0.0779088
1016.65	0.0847651
1018.58	0.0930528
1020.51	0.102847
1022.44	0.114338
1024.36	0.128047
1026.29	0.144657
1028.22	0.164746
1030.15	0.188877
1032.08	0.217941
1034.01	0.253114
1035.94	0.295053
1037.87	0.34263
1039.8	0.391829
1041.73	0.435412
1043.66	0.464141
1045.58	0.470161
1047.51	0.451141
1049.44	0.411501
1051.37	0.359583
1053.3	0.304006
1055.23	0.251764
1057.16	0.207604
1059.09	0.173799
1061.02	0.150367
1062.95	0.135889
1064.88	0.128496
1066.81	0.126508
1068.73	0.128658
1070.66	0.13411
1072.59	0.142365
1074.52	0.15305
1076.45	0.165728
1078.38	0.179845
1080.31	0.194615
1082.24	0.208719
1084.17	0.220115
1086.1	0.22643
1088.03	0.225775
1089.95	0.217373
1091.88	0.201778
1093.81	0.180871
1095.74	0.157516
1097.67	0.134669
1099.6	0.11435
1101.53	0.0972451
1103.46	0.083197
1105.39	0.0719451
1107.32	0.0633149
1109.25	0.0569135
1111.18	0.0520426
1113.1	0.0481065
1115.03	0.0449585
1116.96	0.0426976
1118.89	0.0412249
1120.82	0.0401655
1122.75	0.0391685
1124.68	0.0381061
1126.61	0.0369818
1128.54	0.0358163
1130.47	0.0346819
1132.4	0.0337147
1134.32	0.0329884
1136.25	0.032421
1138.18	0.0318585
1140.11	0.0312178
1142.04	0.0305276
1143.97	0.0298868
1145.9	0.0294073
1147.83	0.0291206
1149.76	0.0288933
1151.69	0.028505
1153.62	0.0278777
1155.55	0.0271727
1157.47	0.0265825
1159.4	0.0260671
1161.33	0.0253921
1163.26	0.0244319
1165.19	0.0233566
1167.12	0.0224913
1169.05	0.0220267
1170.98	0.0218777
1172.91	0.0217962
1174.84	0.0216022
1176.77	0.0213176
1178.69	0.0210827
1180.62	0.0209597
1182.55	0.0208557
1184.48	0.0206491
1186.41	0.0203496
1188.34	0.020096
1190.27	0.0200232
1192.2	0.0201585
1194.13	0.0204186
1196.06	0.0206666
1197.99	0.0208021
1199.91	0.0208382
1201.84	0.0208726
1203.77	0.0209546
1205.7	0.0210367
1207.63	0.0211066
1209.56	0.0212776
1211.49	0.0216244
1213.42	0.0219879
1215.35	0.0221312
1217.28	0.0221105
1219.21	0.0222873
1221.14	0.0228572
1223.06	0.0235299
1224.99	0.0238609
1226.92	0.0238145
1228.85	0.023784
1230.78	0.0240632
1232.71	0.0245297
1234.64	0.0249298
1236.57	0.0252651
1238.5	0.025716
1240.43	0.0263132
1242.36	0.0269126
1244.28	0.027485
1246.21	0.0282167
1248.14	0.0292449
1250.07	0.030444
1252	0.0315845
1253.93	0.0326145
1255.86	0.0336716
1257.79	0.0348831
1259.72	0.0363
1261.65	0.0380171
1263.58	0.0401976
1265.51	0.0428764
1267.43	0.045791
1269.36	0.0484634
1271.29	0.0504369
1273.22	0.0514356
1275.15	0.0513763
1277.08	0.0503574
1279.01	0.0486935
1280.94	0.046864
1282.87	0.0452907
1284.8	0.0441417
1286.73	0.0433963
1288.65	0.0430624
1290.58	0.0432465
1292.51	0.0440121
1294.44	0.0452513
1296.37	0.0467345
1298.3	0.0482446
1300.23	0.0496472
1302.16	0.0508939
1304.09	0.0520419
1306.02	0.0532585
1307.95	0.0546967
1309.87	0.0563063
1311.8	0.0578222
1313.73	0.0590107
1315.66	0.0599073
1317.59	0.0607498
1319.52	0.0616858
1321.45	0.0626175
1323.38	0.0633465
1325.31	0.0637791
1327.24	0.0639373
1329.17	0.0638457
1331.1	0.0634909
1333.02	0.0628778
1334.95	0.0620633
1336.88	0.0611238
1338.81	0.0601104
1340.74	0.0590471
1342.67	0.0579833
1344.6	0.057036
1346.53	0.0563351
1348.46	0.055902
1350.39	0.0556169
1352.32	0.0553606
1354.24	0.0551291
1356.17	0.0549323
1358.1	0.0547063
1360.03	0.054548
1361.96	0.0550475
1363.89	0.0570755
1365.82	0.0610078
1367.75	0.0664566
1369.68	0.0727158
1371.61	0.0790647
1373.54	0.0848143
1375.47	0.0893847
1377.39	0.0923256
1379.32	0.0932756
1381.25	0.0920519
1383.18	0.0888001
1385.11	0.0841879
1387.04	0.0794842
1388.97	0.0758652
1390.9	0.0734748
1392.83	0.0716972
1394.76	0.0701554
1396.69	0.0691262
1398.61	0.0689503
1400.54	0.0693964
1402.47	0.0699966
1404.4	0.0705731
1406.33	0.0711969
1408.26	0.0718722
1410.19	0.072458
1412.12	0.0728554
1414.05	0.0730701
1415.98	0.0730789
1417.91	0.0728055
1419.83	0.0723121
1421.76	0.0717991
1423.69	0.0712953
1425.62	0.0706635
1427.55	0.0699087
1429.48	0.069237
1431.41	0.0687078
1433.34	0.0680359
1435.27	0.0669738
1437.2	0.065851
1439.13	0.065363
1441.06	0.0656954
1442.98	0.066505
1444.91	0.0674683
1446.84	0.0683785
1448.77	0.0690301
1450.7	0.0692534
1452.63	0.0688458
1454.56	0.0673961
1456.49	0.0646848
1458.42	0.0614465
1460.35	0.058364
1462.28	0.0550815
1464.2	0.0513552
1466.13	0.0478675
1468.06	0.0453531
1469.99	0.0435588
1471.92	0.0418579
1473.85	0.0403963
1475.78	0.0397712
1477.71	0.0397388
1479.64	0.0395168
1481.57	0.0387702
1483.5	0.0376732
1485.43	0.0362949
1487.35	0.0343399
1489.28	0.0318109
1491.21	0.0294149
1493.14	0.0275503
1495.07	0.0258081
1497	0.023845
1498.93	0.0221018
1500.86	0.0210423
1502.79	0.0203386
1504.72	0.0193797
1506.65	0.0180317
1508.57	0.0169397
1510.5	0.0164202
1512.43	0.0160823
1514.36	0.0156553
1516.29	0.0151529
1518.22	0.0146683
1520.15	0.0142254
1522.08	0.0138242
1524.01	0.0134934
1525.94	0.0132176
1527.87	0.0129356
1529.8	0.0126221
1531.72	0.0122983
1533.65	0.0119804
1535.58	0.0116537
1537.51	0.0113206
1539.44	0.0110829
1541.37	0.0111018
1543.3	0.01133
1545.23	0.0115599
1547.16	0.0116994
1549.09	0.0117639
1551.02	0.0117888
1552.94	0.0117424
1554.87	0.0114701
1556.8	0.0108004
1558.73	0.00998566
1560.66	0.00968191
1562.59	0.00984784
1564.52	0.00998796
1566.45	0.00985217
1568.38	0.00953593
1570.31	0.00932812
1572.24	0.00931167
1574.16	0.00928389
1576.09	0.00908049
1578.02	0.00882265
1579.95	0.00875449
1581.88	0.00892339
1583.81	0.00917451
1585.74	0.009291
1587.67	0.00916591
1589.6	0.00893403
1591.53	0.00887562
1593.46	0.00915221
1595.39	0.00962471
1597.31	0.00996314
1599.24	0.00995819
1601.17	0.00968687
1603.1	0.00938756
1605.03	0.00924371
1606.96	0.00930293
1608.89	0.00952642
1610.82	0.00984441
1612.75	0.0101715
1614.68	0.0104373
1616.61	0.0106662
1618.53	0.0109778
1620.46	0.0114138
1622.39	0.011887
1624.32	0.0123498
1626.25	0.0128937
1628.18	0.0135798
1630.11	0.0142647
1632.04	0.0147304
1633.97	0.0148867
1635.9	0.014927
1637.83	0.0151315
1639.76	0.0154099
1641.68	0.0155063
1643.61	0.0153495
1645.54	0.0151429
1647.47	0.0151402
1649.4	0.0152911
1651.33	0.0153982
1653.26	0.0154798
1655.19	0.0156995
1657.12	0.015991
1659.05	0.0161736
1660.98	0.0161837
1662.9	0.0160794
1664.83	0.0159166
1666.76	0.0156492
1668.69	0.0152456
1670.62	0.0148234
1672.55	0.0145101
1674.48	0.0141953
1676.41	0.013663
1678.34	0.0128795
1680.27	0.0119428
1682.2	0.010947
1684.12	0.010078
1686.05	0.00962011
1687.98	0.00956017
1689.91	0.00959342
1691.84	0.00945539
1693.77	0.00900982
1695.7	0.00827834
1697.63	0.00749949
1699.56	0.00701322
1701.49	0.00691993
1703.42	0.00701279
1705.35	0.00709256
1707.27	0.00712507
1709.2	0.00711584
1711.13	0.00696713
1713.06	0.00654171
1714.99	0.00590045
1716.92	0.00545603
1718.85	0.00548745
1720.78	0.00566469
1722.71	0.0056436
1724.64	0.00547346
1726.57	0.00535288
1728.49	0.0052608
1730.42	0.00492017
1732.35	0.0041777
1734.28	0.00339377
1736.21	0.00308447
1738.14	0.00324292
1740.07	0.00353369
1742	0.00372789
1743.93	0.00379456
1745.86	0.00379049
1747.79	0.0037481
1749.72	0.00367453
1751.64	0.00360433
1753.57	0.00359222
1755.5	0.00366306
1757.43	0.00380787
1759.36	0.00400241
1761.29	0.00420662
1763.22	0.00435277
1765.15	0.00434994
1767.08	0.00412341
1769.01	0.00369782
1770.94	0.00328175
1772.86	0.00314593
1774.79	0.00328304
1776.72	0.00341391
1778.65	0.00333534
1780.58	0.00310515
1782.51	0.00298794
1784.44	0.00316193
1786.37	0.00347759
1788.3	0.00362106
1790.23	0.00343589
1792.16	0.00311083
1794.08	0.0029797
1796.01	0.00307151
1797.94	0.00312003
1799.87	0.00291815
1801.8	0.00251468
1803.73	0.00211361
1805.66	0.0018511
1807.59	0.00176705
1809.52	0.00187181
1811.45	0.002098
1813.38	0.002282
1815.31	0.00231368
1817.23	0.0022263
1819.16	0.00209108
1821.09	0.00191407
1823.02	0.00170624
1824.95	0.00158684
1826.88	0.00168384
1828.81	0.0019234
1830.74	0.0020823
1832.67	0.00208473
1834.6	0.00205682
1836.53	0.00208919
1838.45	0.00211611
1840.38	0.00205539
1842.31	0.00195005
1844.24	0.00189637
1846.17	0.00188142
1848.1	0.00182534
1850.03	0.00173906
1851.96	0.00170083
1853.89	0.00173828
1855.82	0.00182643
1857.75	0.00197643
1859.68	0.00221696
1861.6	0.00246744
1863.53	0.00254127
1865.46	0.00233343
1867.39	0.00198014
1869.32	0.00178018
1871.25	0.0018843
1873.18	0.0021544
1875.11	0.002365
1877.04	0.00239106
1878.97	0.00224669
1880.9	0.0020499
1882.82	0.00193711
1884.75	0.00197924
1886.68	0.00215286
1888.61	0.00237539
1890.54	0.00258469
1892.47	0.00278325
1894.4	0.00299257
1896.33	0.0031968
1898.26	0.00336119
1900.19	0.00347737
1902.12	0.00354794
1904.05	0.00355082
1905.97	0.00349034
1907.9	0.00348104
1909.83	0.00367357
1911.76	0.00405301
1913.69	0.00443662
1915.62	0.00473438
1917.55	0.00509777
1919.48	0.00567816
1921.41	0.00629918
1923.34	0.00659871
1925.27	0.00647115
1927.19	0.00614611
1929.12	0.00582356
1931.05	0.00544977
1932.98	0.0049396
1934.91	0.00440456
1936.84	0.00397043
1938.77	0.00353686
1940.7	0.00296515
1942.63	0.00241825
1944.56	0.00221862
1946.49	0.00235581
1948.41	0.00247623
1950.34	0.00239428
1952.27	0.00232678
1954.2	0.002519
1956.13	0.00283557
1958.06	0.00292973
1959.99	0.00270286
1961.92	0.00237074
1963.85	0.00212393
1965.78	0.00194045
1967.71	0.00175723
1969.64	0.00163986
1971.56	0.00167595
1973.49	0.00181168
1975.42	0.00189683
1977.35	0.00184297
1979.28	0.00167757
1981.21	0.00148123
1983.14	0.00134193
1985.07	0.00135022
1987	0.00155716
1988.93	0.00190595
1990.86	0.00223818
1992.78	0.00240717
1994.71	0.00238714
1996.64	0.00225312
1998.57	0.00208133
2000.5	0.00189902
2002.43	0.00170605
2004.36	0.00150926
2006.29	0.00133836
2008.22	0.00125146
2010.15	0.00131425
2012.08	0.00152882
2014.01	0.00177108
2015.93	0.00185381
2017.86	0.00171532
2019.79	0.00151974
2021.72	0.00148478
2023.65	0.0016218
2025.58	0.00173533
2027.51	0.00169451
2029.44	0.00161121
2031.37	0.00167389
2033.3	0.00187205
2035.23	0.00199484
2037.15	0.00189082
2039.08	0.0016315
2041.01	0.00139704
2042.94	0.00127432
2044.87	0.00120764
2046.8	0.0011074
2048.73	0.000969308
2050.66	0.000903125
2052.59	0.00105265
2054.52	0.00145304
2056.45	0.00195365
2058.37	0.00231399
2060.3	0.00239383
2062.23	0.00223834
2064.16	0.00199375
2066.09	0.00178249
2068.02	0.00165631
2069.95	0.0016082
2071.88	0.00159493
2073.81	0.00157948
2075.74	0.0015749
2077.67	0.00162179
2079.6	0.00172175
2081.52	0.00184135
2083.45	0.00198252
2085.38	0.00216832
2087.31	0.00232738
2089.24	0.00228956
2091.17	0.00199117
2093.1	0.00163083
2095.03	0.00150748
2096.96	0.00170623
2098.89	0.00202487
2100.82	0.00221106
2102.74	0.00219113
2104.67	0.00205325
2106.6	0.00191135
2108.53	0.0018592
2110.46	0.00198979
2112.39	0.00234512
2114.32	0.0028257
2116.25	0.00321502
2118.18	0.00334592
2120.11	0.00324557
2122.04	0.0031109
2123.97	0.00314149
2125.89	0.00337319
2127.82	0.00364543
2129.75	0.00374221
2131.68	0.00359833
2133.61	0.00336751
2135.54	0.00326008
2137.47	0.00331926
2139.4	0.00340449
2141.33	0.00339632
2143.26	0.00333332
2145.19	0.00329857
2147.11	0.00325477
2149.04	0.00309677
2150.97	0.00283424
2152.9	0.00261102
2154.83	0.00254351
2156.76	0.00263462
2158.69	0.00283531
2160.62	0.0030612
2162.55	0.00313772
2164.48	0.00290444
2166.41	0.00246699
2168.33	0.00219695
2170.26	0.00233769
2172.19	0.00271138
2174.12	0.00297114
2176.05	0.00305274
2177.98	0.00317381
2179.91	0.00343036
2181.84	0.00363984
2183.77	0.00363572
2185.7	0.00350762
2187.63	0.0034329
2189.56	0.00341361
2191.48	0.00330882
2193.41	0.00303665
2195.34	0.00264259
2197.27	0.00225384
2199.2	0.00206012
2201.13	0.00223185
2203.06	0.00271105
2204.99	0.00314975
2206.92	0.0032208
2208.85	0.00298062
2210.78	0.0027894
2212.7	0.00287932
2214.63	0.00314696
2216.56	0.00338047
2218.49	0.0035103
2220.42	0.0035489
2222.35	0.00343934
2224.28	0.00312975
2226.21	0.0027387
2228.14	0.00248702
2230.07	0.00245362
2232	0.00251133
2233.93	0.00252588
2235.85	0.00251087
2237.78	0.00253829
2239.71	0.00259765
2241.64	0.00263823
2243.57	0.00269498
2245.5	0.00286069
2247.43	0.00313435
2249.36	0.00339051
2251.29	0.00352508
2253.22	0.00355554
2255.15	0.00353555
2257.07	0.00344033
2259	0.00320823
2260.93	0.00285823
2262.86	0.00248694
2264.79	0.00216089
2266.72	0.00188967
2268.65	0.00170935
2270.58	0.00170087
2272.51	0.0018711
2274.44	0.00207153
2276.37	0.00210802
2278.29	0.00192536
2280.22	0.00164255
2282.15	0.00141936
2284.08	0.00132443
2286.01	0.00130153
2287.94	0.00119872
2289.87	0.000849766
2291.8	0.000215048
2293.73	-0.000541891
2295.66	-0.00119519
2297.59	-0.00170304
2299.52	-0.00223178
2301.44	-0.00289072
2303.37	-0.0035692
2305.3	-0.00417069
2307.23	-0.00490545
2309.16	-0.00608994
2311.09	-0.00758996
2313.02	-0.00875883
2314.95	-0.00919773
2316.88	-0.00935416
2318.81	-0.0100851
2320.74	-0.0116761
2322.66	-0.0134951
2324.59	-0.0148122
2326.52	-0.015638
2328.45	-0.016421
2330.38	-0.0172496
2332.31	-0.0177127
2334.24	-0.0175554
2336.17	-0.0172373
2338.1	-0.017618
2340.03	-0.0189557
2341.96	-0.0200822
2343.89	-0.0192969
2345.81	-0.0168186
2347.74	-0.0145745
2349.67	-0.0140872
2351.6	-0.0158669
2353.53	-0.0192735
2355.46	-0.0223365
2357.39	-0.0235297
2359.32	-0.023755
2361.25	-0.0242116
2363.18	-0.0241932
2365.11	-0.0224492
2367.03	-0.0192233
2368.96	-0.0158256
2370.89	-0.0130528
2372.82	-0.0107181
2374.75	-0.0083549
2376.68	-0.0058754
2378.61	-0.00352149
2380.54	-0.00149258
2382.47	0.000172014
2384.4	0.00143729
2386.33	0.00221129
2388.26	0.00252014
2390.18	0.0026416
2392.11	0.00290132
2394.04	0.00331781
2395.97	0.00359123
2397.9	0.00350941
2399.83	0.00324661
2401.76	0.0031562
2403.69	0.0033427
2405.62	0.0035737
2407.55	0.00361027
2409.48	0.00350908
2411.4	0.00354476
2413.33	0.00387933
2415.26	0.00435051
2417.19	0.00458393
2419.12	0.00433603
2421.05	0.00377163
2422.98	0.00338627
2424.91	0.00356956
2426.84	0.00420183
2428.77	0.00474535
2430.7	0.00478446
2432.62	0.00441969
2434.55	0.00407243
2436.48	0.00396349
2438.41	0.0039059
2440.34	0.00361165
2442.27	0.00307255
2444.2	0.00257311
2446.13	0.00241031
2448.06	0.00267608
2449.99	0.0032359
2451.92	0.0038041
2453.85	0.00408978
2455.77	0.00402763
2457.7	0.00389725
2459.63	0.00408466
2461.56	0.00465195
2463.49	0.00523434
2465.42	0.00543786
2467.35	0.00524823
2469.28	0.00495403
2471.21	0.00476389
2473.14	0.00465127
2475.07	0.00453297
2476.99	0.00442744
2478.92	0.00441015
2480.85	0.00454946
2482.78	0.00491881
2484.71	0.00552565
2486.64	0.00616103
2488.57	0.00646825
2490.5	0.00629519
2492.43	0.00590129
2494.36	0.00568748
2496.29	0.00577504
2498.22	0.0059774
2500.14	0.00613352
2502.07	0.00629926
2504	0.00659666
2505.93	0.00702781
2507.86	0.00749894
2509.79	0.00791551
2511.72	0.00818537
2513.65	0.00822942
2515.58	0.0080793
2517.51	0.00788839
2519.44	0.00774664
2521.36	0.00754796
2523.29	0.00716891
2525.22	0.00674976
2527.15	0.00663196
2529.08	0.00695637
2531.01	0.00744895
2532.94	0.00771639
2534.87	0.00768547
2536.8	0.0076148
2538.73	0.00769651
2540.66	0.00780728
2542.58	0.00771463
2544.51	0.0073987
2546.44	0.00703692
2548.37	0.00673274
2550.3	0.00642163
2552.23	0.00607539
2554.16	0.00586138
2556.09	0.00597796
2558.02	0.00635994
2559.95	0.00665257
2561.88	0.00653267
2563.81	0.0060318
2565.73	0.00550479
2567.66	0.00528526
2569.59	0.00541676
2571.52	0.00573969
2573.45	0.00615155
2575.38	0.00664352
2577.31	0.00709417
2579.24	0.00723638
2581.17	0.00697117
2583.1	0.00657715
2585.03	0.00639639
2586.95	0.00637304
2588.88	0.00615679
2590.81	0.00568898
2592.74	0.00540594
2594.67	0.00569577
2596.6	0.00634752
2598.53	0.00677353
2600.46	0.00670667
2602.39	0.00646116
2604.32	0.00650293
2606.25	0.00693411
2608.18	0.00744065
2610.1	0.00763567
2612.03	0.00741576
2613.96	0.00705165
2615.89	0.00694253
2617.82	0.00721704
2619.75	0.00758373
2621.68	0.00765428
2623.61	0.00740003
2625.54	0.00717364
2627.47	0.00726936
2629.4	0.00760281
2631.32	0.00788853
2633.25	0.00800036
2635.18	0.00802712
2637.11	0.0080552
2639.04	0.00807115
2640.97	0.00808478
2642.9	0.00818234
2644.83	0.00836922
2646.76	0.0084687
2648.69	0.00831041
2650.62	0.00798693
2652.54	0.00779367
2654.47	0.00789555
2656.4	0.00816558
2658.33	0.00840299
2660.26	0.00860989
2662.19	0.00895329
2664.12	0.00949397
2666.05	0.0100434
2667.98	0.0102968
2669.91	0.0100948
2671.84	0.009612
2673.77	0.00931102
2675.69	0.00959271
2677.62	0.0103847
2679.55	0.0111591
2681.48	0.0114874
2683.41	0.0114992
2685.34	0.0116231
2687.27	0.0119721
2689.2	0.0122636
2691.13	0.0123461
2693.06	0.0124739
2694.99	0.0129075
2696.91	0.0134954
2698.84	0.013885
2700.77	0.0139917
2702.7	0.0140204
2704.63	0.0141214
2706.56	0.014262
2708.49	0.0143986
2710.42	0.0145709
2712.35	0.0148265
2714.28	0.0151924
2716.21	0.0156742
2718.14	0.0161453
2720.06	0.0163539
2721.99	0.0162727
2723.92	0.0163468
2725.85	0.0170486
2727.78	0.0181706
2729.71	0.0189331
2731.64	0.0189337
2733.57	0.018663
2735.5	0.0188395
2737.43	0.0195128
2739.36	0.0201482
2741.28	0.0203845
2743.21	0.0203114
2745.14	0.0200819
2747.07	0.0196921
2749	0.0192401
2750.93	0.0190329
2752.86	0.0192136
2754.79	0.0194891
2756.72	0.0194409
2758.65	0.0190115
2760.58	0.0185437
2762.51	0.0184259
2764.43	0.018802
2766.36	0.0195205
2768.29	0.0202342
2770.22	0.020636
2772.15	0.0207279
2774.08	0.0207978
2776.01	0.0210414
2777.94	0.0213139
2779.87	0.0213745
2781.8	0.0212556
2783.73	0.0212286
2785.65	0.0215003
2787.58	0.0221213
2789.51	0.0230811
2791.44	0.0242524
2793.37	0.0252962
2795.3	0.0259095
2797.23	0.0262089
2799.16	0.0266377
2801.09	0.0274284
2803.02	0.0283841
2804.95	0.0292744
2806.87	0.0301957
2808.8	0.0313613
2810.73	0.0327073
2812.66	0.0339179
2814.59	0.0347797
2816.52	0.0353613
2818.45	0.0358754
2820.38	0.0364775
2822.31	0.0371934
2824.24	0.0379848
2826.17	0.0388809
2828.1	0.0399927
2830.02	0.0413102
2831.95	0.0425722
2833.88	0.0435524
2835.81	0.0444482
2837.74	0.0456848
2839.67	0.0472594
2841.6	0.0486205
2843.53	0.0494114
2845.46	0.0500724
2847.39	0.0513505
2849.32	0.0533023
2851.24	0.0552858
2853.17	0.0569646
2855.1	0.0587686
2857.03	0.061284
2858.96	0.0645438
2860.89	0.0680403
2862.82	0.0712634
2864.75	0.0741417
2866.68	0.0770503
2868.61	0.0803883
2870.54	0.084029
2872.47	0.0872277
2874.39	0.0892479
2876.32	0.0900762
2878.25	0.0903387
2880.18	0.090528
2882.11	0.0905516
2884.04	0.0900925
2885.97	0.0891696
2887.9	0.0881749
2889.83	0.087469
2891.76	0.0870648
2893.69	0.0866371
2895.61	0.0857805
2897.54	0.0843418
2899.47	0.0825783
2901.4	0.0809349
2903.33	0.0796113
2905.26	0.0783942
2907.19	0.0769303
2909.12	0.0751165
2911.05	0.07327
2912.98	0.0720155
2914.91	0.071908
2916.83	0.0728907
2918.76	0.0741804
2920.69	0.0750445
2922.62	0.0755678
2924.55	0.0762823
2926.48	0.0771708
2928.41	0.0774608
2930.34	0.0765316
2932.27	0.0746804
2934.2	0.0727509
2936.13	0.0712438
2938.06	0.0700262
2939.98	0.068721
2941.91	0.0671151
2943.84	0.0653133
2945.77	0.0637637
2947.7	0.0630749
2949.63	0.0635948
2951.56	0.0652335
2953.49	0.0678785
2955.42	0.0718143
2957.35	0.0774176
2959.28	0.0845808
2961.2	0.0929038
2963.13	0.102391
2965.06	0.113308
2966.99	0.125033
2968.92	0.135488
2970.85	0.142193
2972.78	0.143734
2974.71	0.139975
2976.64	0.131405
2978.57	0.119043
2980.5	0.104725
2982.43	0.0905908
2984.35	0.0779993
2986.28	0.0672328
2988.21	0.0581692
2990.14	0.0508054
2992.07	0.0450739
2994	0.0406411
2995.93	0.0371891
2997.86	0.0346256
2999.79	0.0327933
3001.72	0.0312582
3003.65	0.0296945
3005.57	0.0282824
3007.5	0.0273626
3009.43	0.0268082
3011.36	0.0261222
3013.29	0.0251413
3015.22	0.024274
3017.15	0.0239295
3019.08	0.0240034
3021.01	0.0241289
3022.94	0.0242099
3024.87	0.0244257
3026.79	0.0247938
3028.72	0.0250116
3030.65	0.0248298
3032.58	0.0244413
3034.51	0.024352
3036.44	0.0248688
3038.37	0.0257573
3040.3	0.0263905
3042.23	0.0262567
3044.16	0.0254107
3046.09	0.0244858
3048.02	0.0241923
3049.94	0.0246836
3051.87	0.0254408
3053.8	0.0258911
3055.73	0.0261056
3057.66	0.0266984
3059.59	0.0279566
3061.52	0.0293299
3063.45	0.0300048
3065.38	0.0298229
3067.31	0.029363
3069.24	0.0291888
3071.16	0.0293794
3073.09	0.0298113
3075.02	0.0304665
3076.95	0.031276
3078.88	0.032009
3080.81	0.0325865
3082.74	0.0332416
3084.67	0.0340793
3086.6	0.0347293
3088.53	0.0348367
3090.46	0.0347389
3092.39	0.0351708
3094.31	0.036307
3096.24	0.0375367
3098.17	0.0382958
3100.1	0.0387331
3102.03	0.039332
3103.96	0.0402376
3105.89	0.0412929
3107.82	0.042466
3109.75	0.0438257
3111.68	0.0451842
3113.61	0.0461493
3115.53	0.0465791
3117.46	0.0467075
3119.39	0.0467955
3121.32	0.046969
3123.25	0.0474621
3125.18	0.0486035
3127.11	0.0502688
3129.04	0.0516673
3130.97	0.0521283
3132.9	0.0520252
3134.83	0.0524706
3136.75	0.0539963
3138.68	0.0559686
3140.61	0.0575148
3142.54	0.0585875
3144.47	0.059738
3146.4	0.0611713
3148.33	0.062563
3150.26	0.0637174
3152.19	0.0648465
3154.12	0.0660659
3156.05	0.0670875
3157.98	0.067692
3159.9	0.0682033
3161.83	0.069166
3163.76	0.070682
3165.69	0.0723274
3167.62	0.0736876
3169.55	0.0748123
3171.48	0.0761483
3173.41	0.0780831
3175.34	0.0804613
3177.27	0.0825028
3179.2	0.0833695
3181.12	0.0829933
3183.05	0.0823167
3184.98	0.0825832
3186.91	0.0843221
3188.84	0.086937
3190.77	0.089187
3192.7	0.090152
3194.63	0.0899249
3196.56	0.0894505
3198.49	0.0897029
3200.42	0.0910322
3202.35	0.0931928
3204.27	0.0956646
3206.2	0.0977437
3208.13	0.0987115
3210.06	0.0984904
3211.99	0.0980557
3213.92	0.0986222
3215.85	0.100333
3217.78	0.102208
3219.71	0.103476
3221.64	0.104475
3223.57	0.105966
3225.49	0.108061
3227.42	0.110223
3229.35	0.112002
3231.28	0.113342
3233.21	0.114346
3235.14	0.11514
3237.07	0.115882
3239	0.116605
3240.93	0.117119
3242.86	0.117314
3244.79	0.117403
3246.72	0.117641
3248.64	0.118002
3250.57	0.118467
3252.5	0.119417
3254.43	0.121285
3256.36	0.123808
3258.29	0.126003
3260.22	0.12701
3262.15	0.126778
3264.08	0.126014
3266.01	0.125665
3267.94	0.126349
3269.86	0.127963
3271.79	0.129779
3273.72	0.131073
3275.65	0.131671
3277.58	0.131858
3279.51	0.131938
3281.44	0.132118
3283.37	0.13262
3285.3	0.133527
3287.23	0.13454
3289.16	0.135139
3291.08	0.135021
3293.01	0.134293
3294.94	0.133383
3296.87	0.132952
3298.8	0.133614
3300.73	0.135326
3302.66	0.137165
3304.59	0.138077
3306.52	0.137885
3308.45	0.137304
3310.38	0.137043
3312.31	0.137188
3314.23	0.137427
3316.16	0.137534
3318.09	0.137546
3320.02	0.13774
3321.95	0.138425
3323.88	0.13951
3325.81	0.140296
3327.74	0.140039
3329.67	0.138766
3331.6	0.137203
3333.53	0.135839
3335.45	0.134537
3337.38	0.133246
3339.31	0.132554
3341.24	0.132999
3343.17	0.134089
3345.1	0.134645
3347.03	0.134229
3348.96	0.133684
3350.89	0.133803
3352.82	0.134009
3354.75	0.133107
3356.68	0.131085
3358.6	0.129318
3360.53	0.128764
3362.46	0.128752
3364.39	0.128038
3366.32	0.126564
3368.25	0.125421
3370.18	0.125167
3372.11	0.124983
3374.04	0.123772
3375.97	0.121583
3377.9	0.119504
3379.82	0.118362
3381.75	0.117951
3383.68	0.11745
3385.61	0.116249
3387.54	0.114391
3389.47	0.112477
3391.4	0.111144
3393.33	0.11051
3395.26	0.110128
3397.19	0.109499
3399.12	0.108474
3401.04	0.107062
3402.97	0.105163
3404.9	0.10282
3406.83	0.100571
3408.76	0.0991034
3410.69	0.0984344
3412.62	0.0977717
3414.55	0.0964113
3416.48	0.0945727
3418.41	0.0930894
3420.34	0.0923786
3422.27	0.0920421
3424.19	0.0915807
3426.12	0.0911017
3428.05	0.0909082
3429.98	0.0905822
3431.91	0.0890622
3433.84	0.0859233
3435.77	0.0822808
3437.7	0.0799169
3439.63	0.0793907
3441.56	0.0793762
3443.49	0.0781794
3445.41	0.075684
3447.34	0.073334
3449.27	0.0722334
3451.2	0.0718608
3453.13	0.0709042
3455.06	0.0688977
3456.99	0.0666192
3458.92	0.0650638
3460.85	0.0645217
3462.78	0.0646613
3464.71	0.0649806
3466.64	0.0649734
3468.56	0.0642488
3470.49	0.0628186
3472.42	0.0611651
3474.35	0.0598139
3476.28	0.0588535
3478.21	0.0579691
3480.14	0.0568375
3482.07	0.055423
3484	0.0540331
3485.93	0.0530763
3487.86	0.0525726
3489.78	0.0519523
3491.71	0.0506265
3493.64	0.0487747
3495.57	0.0471735
3497.5	0.0461037
3499.43	0.0449168
3501.36	0.0430288
3503.29	0.0409459
3505.22	0.0397264
3507.15	0.0395932
3509.08	0.0396771
3511	0.0390404
3512.93	0.037526
3514.86	0.0357081
3516.79	0.0344146
3518.72	0.0342349
3520.65	0.0350314
3522.58	0.0358344
3524.51	0.0355464
3526.44	0.0339216
3528.37	0.0317257
3530.3	0.0298863
3532.23	0.0286892
3534.15	0.0277031
3536.08	0.0261956
3538.01	0.0238668
3539.94	0.0214441
3541.87	0.0202218
3543.8	0.0205716
3545.73	0.021018
3547.66	0.0196552
3549.59	0.0166329
3551.52	0.0140586
3553.45	0.0133767
3555.37	0.0139026
3557.3	0.0141643
3559.23	0.0139195
3561.16	0.0141525
3563.09	0.0154947
3565.02	0.0172534
3566.95	0.0178558
3568.88	0.0163002
3570.81	0.013134
3572.74	0.00990142
3574.67	0.00815682
3576.6	0.00845186
3578.52	0.00953518
3580.45	0.00960193
3582.38	0.00877737
3584.31	0.00921671
3586.24	0.0121602
3588.17	0.0151444
3590.1	0.0145959
3592.03	0.0108355
3593.96	0.00739112
3595.89	0.00677619
3597.82	0.00821779
3599.74	0.00950035
3601.67	0.00999389
3603.6	0.010114
3605.53	0.00904379
3607.46	0.00526824
3609.39	-0.000194833
3611.32	-0.0034595
3613.25	-0.00252984
3615.18	0.000479458
3617.11	0.00235879
3619.04	0.00227496
3620.97	0.00201363
3622.89	0.0029943
3624.82	0.00498659
3626.75	0.00709095
3628.68	0.00823158
3630.61	0.00774452
3632.54	0.00622709
3634.47	0.0046965
3636.4	0.00346221
3638.33	0.00215257
3640.26	0.000617486
3642.19	-0.000445241
3644.11	-0.000142304
3646.04	0.00176988
3647.97	0.00471215
3649.9	0.00768671
3651.83	0.00946863
3653.76	0.00823943
3655.69	0.0026803
3657.62	-0.00515541
3659.55	-0.00984675
3661.48	-0.00871419
3663.41	-0.00485236
3665.33	-0.00226748
3667.26	-0.000754621
3669.19	0.00361413
3671.12	0.0115361
3673.05	0.0167438
3674.98	0.0136652
3676.91	0.00582404
3678.84	0.0012793
3680.77	0.00243124
3682.7	0.00621442
3684.63	0.00961216
3686.56	0.0114749
3688.48	0.0112562
3690.41	0.00825046
3692.34	0.0029159
3694.27	-0.00283793
3696.2	-0.00700191
3698.13	-0.00804429
3700.06	-0.00557942
3701.99	-0.00183329
3703.92	-0.000553882
3705.85	-0.00315885
3707.78	-0.00715055
3709.7	-0.00781192
3711.63	-0.00371124
3713.56	-2.04931e-006
3715.49	-0.00101269
3717.42	-0.00516293
3719.35	-0.00800969
3721.28	-0.00702054
3723.21	-0.00436668
3725.14	-0.00381749
3727.07	-0.00548298
3729	-0.00676393
3730.93	-0.00673177
3732.85	-0.00715676
3734.78	-0.00922613
3736.71	-0.011
3738.64	-0.0110335
3740.57	-0.0107062
3742.5	-0.0115337
3744.43	-0.0117509
3746.36	-0.00731089
3748.29	0.0017718
3750.22	0.00975135
3752.15	0.0112388
3754.07	0.00772814
3756	0.00504932
3757.93	0.00634374
3759.86	0.00960656
3761.79	0.00994206
3763.72	0.0047655
3765.65	-0.00368382
3767.58	-0.0104908
3769.51	-0.012071
3771.44	-0.00943893
3773.37	-0.00591168
3775.29	-0.0026201
3777.22	0.0013261
3779.15	0.00571826
3781.08	0.00812349
3783.01	0.00672885
3784.94	0.0027665
3786.87	-0.00108264
3788.8	-0.00339511
3790.73	-0.00448636
3792.66	-0.00514095
3794.59	-0.00573242
3796.52	-0.00623394
3798.44	-0.0062867
3800.37	-0.00541572
3802.3	-0.0038572
3804.23	-0.00280749
3806.16	-0.00314683
3808.09	-0.00435829
3810.02	-0.0051443
3811.95	-0.00460638
3813.88	-0.00286499
3815.81	-0.00134614
3817.74	-0.00212467
3819.66	-0.00540814
3821.59	-0.00800427
3823.52	-0.00668364
3825.45	-0.00259421
3827.38	-0.000154665
3829.31	-0.00191561
3831.24	-0.00543987
3833.17	-0.00583006
3835.1	-0.00139542
3837.03	0.00413101
3838.96	0.00610342
3840.89	0.00414359
3842.81	0.000368672
3844.74	-0.00407906
3846.67	-0.00846259
3848.6	-0.0110624
3850.53	-0.00970157
3852.46	-0.00447291
3854.39	0.000299197
3856.32	0.00185075
3858.25	0.00161164
3860.18	0.000636374
3862.11	-0.00075524
3864.03	-0.000357103
3865.96	0.00498166
3867.89	0.0142908
3869.82	0.0209784
3871.75	0.0188073
3873.68	0.0103943
3875.61	0.00426834
3877.54	0.00436436
3879.47	0.00726231
3881.4	0.0074363
3883.33	0.00407667
3885.25	0.00140988
3887.18	0.00252911
3889.11	0.00576
3891.04	0.00733542
3892.97	0.00628751
3894.9	0.00546425
3896.83	0.0080398
3898.76	0.0137148
3900.69	0.0173824
3902.62	0.0136283
3904.55	0.00496212
3906.48	-0.000551593
3908.4	0.00067205
3910.33	0.00529146
3912.26	0.00772474
3914.19	0.00596312
3916.12	0.0033333
3918.05	0.00368019
3919.98	0.0058772
3921.91	0.00562097
3923.84	0.00155767
3925.77	-0.0029078
3927.7	-0.00383177
3929.62	-0.000985576
3931.55	0.00259407
3933.48	0.00449692
3935.41	0.00524074
3937.34	0.00584343
3939.27	0.00490004
3941.2	7.57248e-005
3943.13	-0.00764907
3945.06	-0.0133069
3946.99	-0.0127282
3948.92	-0.006667
3950.85	5.8368e-005
3952.77	0.00295441
3954.7	0.000947315
3956.63	-0.00414786
3958.56	-0.00913261
3960.49	-0.0109043
3962.42	-0.00878991
3964.35	-0.00551946
3966.28	-0.00446004
3968.21	-0.00585094
3970.14	-0.00704235
3972.07	-0.00638021
3973.99	-0.00496778
3975.92	-0.00403646
3977.85	-0.0025145
3979.78	0.000880103
3981.71	0.00423654
3983.64	0.00351771
3985.57	-0.00264356
3987.5	-0.0104485
3989.43	-0.0143258
3991.36	-0.0125556
3993.29	-0.00858786
3995.22	-0.00693788
3997.14	-0.00850912
3999.07	-0.0101879
4001	-0.00873778
4002.93	-0.0041534
4004.86	0.00123287
4006.79	0.00577163
4008.72	0.00928322
4010.65	0.0112939
4012.58	0.0105469
4014.51	0.00720428
4016.44	0.00401203
4018.36	0.00366775
4020.29	0.00558088
4022.22	0.00667385
4024.15	0.00527655
4026.08	0.00289929
4028.01	0.00203002
4029.94	0.00329278
4031.87	0.00496394
4033.8	0.00473025
4035.73	0.00193734
4037.66	-0.00158001
4039.58	-0.00302961
4041.51	-0.00155612
4043.44	0.000531972
4045.37	0.000296769
4047.3	-0.00237008
4049.23	-0.00492239
4051.16	-0.00527976
4053.09	-0.00330316
4055.02	0.000431106
4056.95	0.00506562
4058.88	0.0081838
4060.81	0.00661236
4062.73	0.00037403
4064.66	-0.00594437
4066.59	-0.00814314
4068.52	-0.00724594
4070.45	-0.0071655
4072.38	-0.00895956
4074.31	-0.00983305
4076.24	-0.00751287
4078.17	-0.00325378
4080.1	0.000290527
4082.03	0.00229667
4083.95	0.00348109
4085.88	0.00401786
4087.81	0.00339231
4089.74	0.00173851
4091.67	0.000262214
4093.6	0.000377022
4095.53	0.00264558
4097.46	0.0058978
4099.39	0.00716148
4101.32	0.00388897
4103.25	-0.00287998
4105.18	-0.0087778
4107.1	-0.0105434
4109.03	-0.00931914
4110.96	-0.00836536
4112.89	-0.00861967
4114.82	-0.00824236
4116.75	-0.00599295
4118.68	-0.00324369
4120.61	-0.00209487
4122.54	-0.00285595
4124.47	-0.00420936
4126.4	-0.00486865
4128.32	-0.00430033
4130.25	-0.00236069
4132.18	0.00097487
4134.11	0.00539188
4136.04	0.00996384
4137.97	0.0132943
4139.9	0.014329
4141.83	0.0132697
4143.76	0.0113628
4145.69	0.00946399
4147.62	0.00694939
4149.54	0.00256133
4151.47	-0.00335989
4153.4	-0.00800587
4155.33	-0.00814788
4157.26	-0.00317712
4159.19	0.00379325
4161.12	0.00796053
4163.05	0.00673206
4164.98	0.00198066
4166.91	-0.00172221
4168.84	-0.001416
4170.77	0.0013733
4172.69	0.00247671
4174.62	-0.000215617
4176.55	-0.00483322
4178.48	-0.00824554
4180.41	-0.00922935
4182.34	-0.00801643
4184.27	-0.00451927
4186.2	0.000518595
4188.13	0.00354474
4190.06	0.000657232
4191.99	-0.0069764
4193.91	-0.0127703
4195.84	-0.0119407
4197.77	-0.00696882
4199.7	-0.00333681
4201.63	-0.00211246
4203.56	-0.000687113
4205.49	0.000473227
4207.42	-0.00279365
4209.35	-0.0106278
4211.28	-0.015736
4213.21	-0.0122111
4215.14	-0.00406593
4217.06	-0.000295687
4218.99	-0.00306462
4220.92	-0.00591131
4222.85	-0.00427111
4224.78	-0.00140008
4226.71	-0.00197122
4228.64	-0.00474726
4230.57	-0.00575468
4232.5	-0.0057576
4234.43	-0.00867512
4236.36	-0.0140975
4238.28	-0.0167219
4240.21	-0.0137335
4242.14	-0.00860015
4244.07	-0.00587185
4246	-0.00587803
4247.93	-0.00656085
4249.86	-0.00728666
4251.79	-0.00798878
4253.72	-0.00658278
4255.65	-0.000944056
4257.58	0.00693036
4259.5	0.0116041
4261.43	0.00963544
4263.36	0.00277288
4265.29	-0.00439032
4267.22	-0.00825375
4269.15	-0.00799587
4271.08	-0.00541562
4273.01	-0.00332939
4274.94	-0.00318631
4276.87	-0.00382258
4278.8	-0.00289465
4280.73	0.000258476
4282.65	0.00365636
4284.58	0.00463907
4286.51	0.0022703
4288.44	-0.00186517
4290.37	-0.0044977
4292.3	-0.00277343
4294.23	0.00337842
4296.16	0.0107458
4298.09	0.0152633
4300.02	0.0153889
4301.95	0.0125614
4303.87	0.00842591
4305.8	0.00346596
4307.73	-0.00138617
4309.66	-0.0042048
4311.59	-0.00439806
4313.52	-0.00383281
4315.45	-0.00434043
4317.38	-0.00533867
4319.31	-0.0053508
4321.24	-0.00463737
4323.17	-0.00441672
4325.1	-0.00456443
4327.02	-0.00426529
4328.95	-0.00430147
4330.88	-0.00628255
4332.81	-0.00973358
4334.74	-0.0124422
4336.67	-0.0139963
4338.6	-0.0161195
4340.53	-0.018923
4342.46	-0.0195476
4344.39	-0.0160138
4346.32	-0.0102597
4348.24	-0.00549539
4350.17	-0.00261629
4352.1	-0.00134024
4354.03	-0.00276807
4355.96	-0.00765166
4357.89	-0.0132276
4359.82	-0.0152656
4361.75	-0.0132219
4363.68	-0.010273
4365.61	-0.00839397
4367.54	-0.00658069
4369.46	-0.00428333
4371.39	-0.0031396
4373.32	-0.00388901
4375.25	-0.00444285
4377.18	-0.00297228
4379.11	-0.000515299
4381.04	0.00151899
4382.97	0.0037622
4384.9	0.00628852
4386.83	0.00608413
4388.76	0.000767725
4390.69	-0.00627298
4392.61	-0.00846937
4394.54	-0.00361202
4396.47	0.00405294
4398.4	0.00895574
4400.33	0.0094046
4402.26	0.00736835
4404.19	0.00537673
4406.12	0.00490619
4408.05	0.0059154
4409.98	0.00700142
4411.91	0.00721962
4413.83	0.00742715
4415.76	0.00814939
4417.69	0.00708255
4419.62	0.00176542
4421.55	-0.00545186
4423.48	-0.00863516
4425.41	-0.00571496
4427.34	-0.00173293
4429.27	-0.00240658
4431.2	-0.00721908
4433.13	-0.011582
4435.06	-0.0134522
4436.98	-0.0141985
4438.91	-0.0144622
4440.84	-0.0131584
4442.77	-0.0105797
4444.7	-0.00914992
4446.63	-0.00992088
4448.56	-0.010669
4450.49	-0.00891575
4452.42	-0.00539538
4454.35	-0.00310132
4456.28	-0.00342393
4458.2	-0.00456667
4460.13	-0.00430384
4462.06	-0.00309701
4463.99	-0.00322171
4465.92	-0.00533005
4467.85	-0.00747972
4469.78	-0.00805197
4471.71	-0.0080739
4473.64	-0.00914827
4475.57	-0.0101409
4477.5	-0.00811773
4479.43	-0.00248202
4481.35	0.00367229
4483.28	0.00691442
4485.21	0.00651626
4487.14	0.00397491
4489.07	0.001853
4491	0.00304779
4492.93	0.00807531
4494.86	0.012424
4496.79	0.0101534
4498.72	0.00153913
4500.65	-0.00586638
4502.57	-0.00611662
4504.5	-0.00293993
4506.43	-0.00458203
4508.36	-0.0116282
4510.29	-0.0155467
4512.22	-0.00978907
4514.15	0.00169047
4516.08	0.00891426
4518.01	0.00724055
4519.94	0.00189229
4521.87	0.00104226
4523.79	0.00688348
4525.72	0.0140875
4527.65	0.0157909
4529.58	0.0105542
4531.51	0.00288899
4533.44	-0.00206246
4535.37	-0.00296562
4537.3	-0.00184489
4539.23	-0.000756069
4541.16	-0.000492929
4543.09	-0.00176484
4545.02	-0.00531807
4546.94	-0.010369
4548.87	-0.0144419
4550.8	-0.0155405
4552.73	-0.0139109
4554.66	-0.0118426
4556.59	-0.0121509
4558.52	-0.016061
4560.45	-0.0215822
4562.38	-0.0243259
4564.31	-0.0213412
4566.24	-0.014495
4568.16	-0.00872262
4570.09	-0.00712204
4572.02	-0.00951182
4573.95	-0.0147851
4575.88	-0.0214793
4577.81	-0.0256777
4579.74	-0.0224361
4581.67	-0.0121531
4583.6	-0.00258311
4585.53	-0.00102959
4587.46	-0.00593145
4589.39	-0.00918529
4591.31	-0.00639702
4593.24	-0.00121161
4595.17	0.000841456
4597.1	-0.00114778
4599.03	-0.00436451
4600.96	-0.00676016
4602.89	-0.0081709
4604.82	-0.00891842
4606.75	-0.0101663
4608.68	-0.0141048
4610.61	-0.0207415
4612.53	-0.025562
4614.46	-0.0232432
4616.39	-0.0139638
4618.32	-0.00383039
4620.25	0.00235339
4622.18	0.00596054
4624.11	0.0102452
4626.04	0.0147172
4627.97	0.0161167
4629.9	0.0127043
4631.83	0.00547128
4633.75	-0.00391048
4635.68	-0.0136483
4637.61	-0.0202501
4639.54	-0.0192744
4641.47	-0.00949443
4643.4	0.00446321
4645.33	0.0148111
4647.26	0.016065
4649.19	0.00824893
4651.12	-0.00425931
4653.05	-0.0161972
4654.98	-0.0242546
4656.9	-0.027784
4658.83	-0.0272572
4660.76	-0.0225947
4662.69	-0.0138196
4664.62	-0.00296828
4666.55	0.00593063
4668.48	0.00908401
4670.41	0.00465755
4672.34	-0.00629209
4674.27	-0.0184156
4676.2	-0.0232404
4678.12	-0.0165583
4680.05	-0.00491579
4681.98	0.000139286
4683.91	-0.00518449
4685.84	-0.0126428
4687.77	-0.0121261
4689.7	-0.00434159
4691.63	0.00212881
4693.56	0.00321127
4695.49	0.00197132
4697.42	0.000884374
4699.35	-0.00250078
4701.27	-0.0104506
4703.2	-0.0202772
4705.13	-0.0266118
4707.06	-0.02623
4708.99	-0.0196923
4710.92	-0.0101417
4712.85	-0.00233367
4714.78	-0.000335387
4716.71	-0.00346673
4718.64	-0.00646927
4720.57	-0.00569556
4722.49	-0.00319213
4724.42	-0.00233782
4726.35	-0.00218888
4728.28	0.000312619
4730.21	0.00519352
4732.14	0.00973407
4734.07	0.0122267
4736	0.0121803
4737.93	0.00857877
4739.86	0.00229507
4741.79	-0.00125161
4743.71	0.00263257
4745.64	0.0104008
4747.57	0.0127449
4749.5	0.0060385
4751.43	-0.00228815
4753.36	-0.00262648
4755.29	0.00506601
4757.22	0.0116212
4759.15	0.0106542
4761.08	0.00566089
4763.01	0.00393051
4764.94	0.00684559
4766.86	0.00835223
4768.79	0.00345093
4770.72	-0.00435463
4772.65	-0.00676497
4774.58	-0.00109625
4776.51	0.00636127
4778.44	0.00898347
4780.37	0.00799934
4782.3	0.00913509
4784.23	0.0135794
4786.16	0.0164005
4788.08	0.0140701
4790.01	0.00846132
4791.94	0.00245196
4793.87	-0.00380255
4795.8	-0.0108221
4797.73	-0.0164687
4799.66	-0.0168031
4801.59	-0.00999217
4803.52	0.00105805
4805.45	0.00967795
4807.38	0.0102675
4809.31	0.00356667
4811.23	-0.0038019
4813.16	-0.00664872
4815.09	-0.00652497
4817.02	-0.00769375
4818.95	-0.0102404
4820.88	-0.0104877
4822.81	-0.00769527
4824.74	-0.00556098
4826.67	-0.00609543
4828.6	-0.00688677
4830.53	-0.00537455
4832.45	-0.00200903
4834.38	0.00256667
4836.31	0.00933338
4838.24	0.0169241
4840.17	0.0197594
4842.1	0.0145565
4844.03	0.00604734
4845.96	0.00202342
4847.89	0.00388908
4849.82	0.00561683
4851.75	0.00256652
4853.68	-0.00276579
4855.6	-0.00460843
4857.53	-0.00016744
4859.46	0.00859445
4861.39	0.017206
4863.32	0.0213686
4865.25	0.0189686
4867.18	0.0114633
4869.11	0.00293334
4871.04	-0.00296735
4872.97	-0.00461326
4874.9	-0.00194498
4876.82	0.00336102
4878.75	0.00752891
4880.68	0.00714456
4882.61	0.00215711
4884.54	-0.00512054
4886.47	-0.013131
4888.4	-0.0215601
4890.33	-0.0284476
4892.26	-0.0294298
4894.19	-0.0219922
4896.12	-0.0096746
4898.04	-0.000184431
4899.97	0.00265599
4901.9	0.00265816
4903.83	0.00440749
4905.76	0.00635707
4907.69	0.00412101
4909.62	-0.00146622
4911.55	-0.00425596
4913.48	-0.00111191
4915.41	0.00348515
4917.34	0.00393111
4919.27	0.00223423
4921.19	0.00512277
4923.12	0.0129628
4925.05	0.0170754
4926.98	0.0107794
4928.91	-0.000859106
4930.84	-0.00719372
4932.77	-0.0057868
4934.7	-0.00431274
4936.63	-0.00801476
4938.56	-0.011648
4940.49	-0.00805548
4942.41	-0.000741347
4944.34	-0.000928392
4946.27	-0.0108125
4948.2	-0.0179762
4950.13	-0.0107637
4952.06	0.00538716
4953.99	0.0124108
4955.92	0.00153048
4957.85	-0.0167024
4959.78	-0.026081
4961.71	-0.0217511
4963.64	-0.0118613
4965.56	-0.00515345
4967.49	-0.0019034
4969.42	0.0021469
4971.35	0.00766613
4973.28	0.010159
4975.21	0.0052506
4977.14	-0.00555699
4979.07	-0.014855
4981	-0.016132
4982.93	-0.0104265
4984.86	-0.00508618
4986.78	-0.00543594
4988.71	-0.00865444
4990.64	-0.00739934
4992.57	0.00101242
4994.5	0.0109201
4996.43	0.0150648
4998.36	0.0122722
