##TITLE=еуые
##$NOTE=11.03.2023 10:11:3 ^0 x10 v:1 [Без приставки]
##$ITAB=-1,-1
##FIRSTX=499.643
##DELTAX=1.92912
##NPOINTS=2333
##XUNITS=1/CM
##YUNITS=TRANSMITTANCE
499.643	255953
501.572	283654
503.501	318168
505.43	359299
507.36	404556
509.289	451504
511.218	498363
513.147	543620
515.076	586848
517.005	629585
518.934	673839
520.863	719663
522.792	765590
524.722	811408
526.651	858667
528.58	907709
530.509	955903
532.438	1.0001e+006
534.367	1.03966e+006
536.296	1.07579e+006
538.225	1.10922e+006
540.155	1.1401e+006
542.084	1.1693e+006
544.013	1.1977e+006
545.942	1.22462e+006
547.871	1.24881e+006
549.8	1.27036e+006
551.729	1.28987e+006
553.658	1.30635e+006
555.588	1.31846e+006
557.517	1.32757e+006
559.446	1.33683e+006
561.375	1.34699e+006
563.304	1.35617e+006
565.233	1.3642e+006
567.162	1.37431e+006
569.091	1.38917e+006
571.021	1.40817e+006
572.95	1.43025e+006
574.879	1.45722e+006
576.808	1.49206e+006
578.737	1.53552e+006
580.666	1.58575e+006
582.595	1.63984e+006
584.524	1.69425e+006
586.454	1.74579e+006
588.383	1.79415e+006
590.312	1.84266e+006
592.241	1.89451e+006
594.17	1.9486e+006
596.099	1.99991e+006
598.028	2.04337e+006
599.957	2.07691e+006
601.887	2.10121e+006
603.816	2.11765e+006
605.745	2.12672e+006
607.674	2.12888e+006
609.603	2.12649e+006
611.532	2.12355e+006
613.461	2.12354e+006
615.39	2.12966e+006
617.32	2.14724e+006
619.249	2.18171e+006
621.178	2.23241e+006
623.107	2.29205e+006
625.036	2.35444e+006
626.965	2.4178e+006
628.894	2.47885e+006
630.823	2.53087e+006
632.753	2.57237e+006
634.682	2.61052e+006
636.611	2.65067e+006
638.54	2.69075e+006
640.469	2.73151e+006
642.398	2.78043e+006
644.327	2.83622e+006
646.256	2.88381e+006
648.186	2.9188e+006
650.115	2.96014e+006
652.044	3.01962e+006
653.973	3.07929e+006
655.902	3.12933e+006
657.831	3.20268e+006
659.76	3.31668e+006
661.689	3.39193e+006
663.619	3.31139e+006
665.548	3.09446e+006
667.477	2.94201e+006
669.406	3.03878e+006
671.335	3.34318e+006
673.264	3.63952e+006
675.193	3.7807e+006
677.122	3.80885e+006
679.052	3.84018e+006
680.981	3.91456e+006
682.91	3.99695e+006
684.839	4.06634e+006
686.768	4.14114e+006
688.697	4.23483e+006
690.626	4.33609e+006
692.555	4.43394e+006
694.485	4.53181e+006
696.414	4.63245e+006
698.343	4.7297e+006
700.272	4.81923e+006
702.201	4.90323e+006
704.13	4.98226e+006
706.059	5.05428e+006
707.988	5.12317e+006
709.917	5.19726e+006
711.847	5.27598e+006
713.776	5.34675e+006
715.705	5.40009e+006
717.634	5.44366e+006
719.563	5.49668e+006
721.492	5.57132e+006
723.421	5.66161e+006
725.35	5.75085e+006
727.28	5.82853e+006
729.209	5.89787e+006
731.138	5.96702e+006
733.067	6.03765e+006
734.996	6.10602e+006
736.925	6.17173e+006
738.854	6.23868e+006
740.783	6.30859e+006
742.713	6.37926e+006
744.642	6.44874e+006
746.571	6.51551e+006
748.5	6.57602e+006
750.429	6.62873e+006
752.358	6.67959e+006
754.287	6.73532e+006
756.216	6.79194e+006
758.146	6.84005e+006
760.075	6.88346e+006
762.004	6.94114e+006
763.933	7.02397e+006
765.862	7.11771e+006
767.791	7.19757e+006
769.72	7.25437e+006
771.649	7.29869e+006
773.579	7.3433e+006
775.508	7.39111e+006
777.437	7.43961e+006
779.366	7.4885e+006
781.295	7.53917e+006
783.224	7.59125e+006
785.153	7.64308e+006
787.082	7.69417e+006
789.012	7.7452e+006
790.941	7.79644e+006
792.87	7.847e+006
794.799	7.89556e+006
796.728	7.94169e+006
798.657	7.98593e+006
800.586	8.02723e+006
802.515	8.06006e+006
804.445	8.07692e+006
806.374	8.07655e+006
808.303	8.06935e+006
810.232	8.07211e+006
812.161	8.09592e+006
814.09	8.13931e+006
816.019	8.19249e+006
817.948	8.24683e+006
819.878	8.30027e+006
821.807	8.3554e+006
823.736	8.41426e+006
825.665	8.47546e+006
827.594	8.53593e+006
829.523	8.59438e+006
831.452	8.65139e+006
833.381	8.70526e+006
835.311	8.74956e+006
837.24	8.7778e+006
839.169	8.79132e+006
841.098	8.79983e+006
843.027	8.81219e+006
844.956	8.82829e+006
846.885	8.84277e+006
848.814	8.85579e+006
850.744	8.87618e+006
852.673	8.91297e+006
854.602	8.96648e+006
856.531	9.02949e+006
858.46	9.09488e+006
860.389	9.15972e+006
862.318	9.22357e+006
864.247	9.28621e+006
866.177	9.34774e+006
868.106	9.40906e+006
870.035	9.47128e+006
871.964	9.53531e+006
873.893	9.60223e+006
875.822	9.67297e+006
877.751	9.74682e+006
879.68	9.82103e+006
881.609	9.89261e+006
883.539	9.96092e+006
885.468	1.00278e+007
887.397	1.0095e+007
889.326	1.0162e+007
891.255	1.02268e+007
893.184	1.02885e+007
895.113	1.03485e+007
897.042	1.04074e+007
898.972	1.04637e+007
900.901	1.0516e+007
902.83	1.05661e+007
904.759	1.06183e+007
906.688	1.06746e+007
908.617	1.07325e+007
910.546	1.07879e+007
912.475	1.08397e+007
914.405	1.08897e+007
916.334	1.09408e+007
918.263	1.09934e+007
920.192	1.10469e+007
922.121	1.11011e+007
924.05	1.11571e+007
925.979	1.12154e+007
927.908	1.12744e+007
929.838	1.13325e+007
931.767	1.139e+007
933.696	1.14492e+007
935.625	1.15106e+007
937.554	1.15725e+007
939.483	1.16358e+007
941.412	1.17052e+007
943.341	1.17836e+007
945.271	1.18672e+007
947.2	1.1948e+007
949.129	1.20234e+007
951.058	1.20979e+007
952.987	1.21764e+007
954.916	1.22579e+007
956.845	1.2336e+007
958.774	1.24065e+007
960.704	1.2471e+007
962.633	1.25359e+007
964.562	1.26089e+007
966.491	1.26942e+007
968.42	1.27904e+007
970.349	1.28917e+007
972.278	1.2992e+007
974.207	1.30882e+007
976.137	1.31808e+007
978.066	1.32714e+007
979.995	1.33617e+007
981.924	1.34533e+007
983.853	1.35462e+007
985.782	1.36377e+007
987.711	1.37252e+007
989.64	1.38093e+007
991.57	1.38938e+007
993.499	1.39789e+007
995.428	1.40584e+007
997.357	1.41253e+007
999.286	1.41814e+007
1001.22	1.42358e+007
1003.14	1.42958e+007
1005.07	1.43594e+007
1007	1.44202e+007
1008.93	1.44754e+007
1010.86	1.45268e+007
1012.79	1.45751e+007
1014.72	1.46183e+007
1016.65	1.46543e+007
1018.58	1.46839e+007
1020.51	1.47106e+007
1022.44	1.47373e+007
1024.36	1.47644e+007
1026.29	1.47893e+007
1028.22	1.48085e+007
1030.15	1.48218e+007
1032.08	1.48338e+007
1034.01	1.48497e+007
1035.94	1.48696e+007
1037.87	1.48885e+007
1039.8	1.4901e+007
1041.73	1.49068e+007
1043.66	1.49108e+007
1045.58	1.49181e+007
1047.51	1.49307e+007
1049.44	1.49469e+007
1051.37	1.49641e+007
1053.3	1.49818e+007
1055.23	1.50016e+007
1057.16	1.50257e+007
1059.09	1.50554e+007
1061.02	1.50903e+007
1062.95	1.51285e+007
1064.88	1.51671e+007
1066.81	1.52044e+007
1068.73	1.52414e+007
1070.66	1.52794e+007
1072.59	1.53183e+007
1074.52	1.53571e+007
1076.45	1.53969e+007
1078.38	1.54401e+007
1080.31	1.54873e+007
1082.24	1.55357e+007
1084.17	1.55834e+007
1086.1	1.56331e+007
1088.03	1.56898e+007
1089.95	1.57561e+007
1091.88	1.5829e+007
1093.81	1.59027e+007
1095.74	1.5974e+007
1097.67	1.60438e+007
1099.6	1.61134e+007
1101.53	1.6181e+007
1103.46	1.62422e+007
1105.39	1.62934e+007
1107.32	1.63341e+007
1109.25	1.6366e+007
1111.18	1.63914e+007
1113.1	1.6413e+007
1115.03	1.64335e+007
1116.96	1.64543e+007
1118.89	1.64752e+007
1120.82	1.64971e+007
1122.75	1.65237e+007
1124.68	1.65592e+007
1126.61	1.6605e+007
1128.54	1.66578e+007
1130.47	1.67117e+007
1132.4	1.67621e+007
1134.32	1.68079e+007
1136.25	1.68502e+007
1138.18	1.68899e+007
1140.11	1.69265e+007
1142.04	1.69592e+007
1143.97	1.69873e+007
1145.9	1.70097e+007
1147.83	1.70249e+007
1149.76	1.70349e+007
1151.69	1.70463e+007
1153.62	1.7067e+007
1155.55	1.70992e+007
1157.47	1.71379e+007
1159.4	1.71759e+007
1161.33	1.72109e+007
1163.26	1.7245e+007
1165.19	1.72795e+007
1167.12	1.73117e+007
1169.05	1.7337e+007
1170.98	1.7355e+007
1172.91	1.73694e+007
1174.84	1.73835e+007
1176.77	1.73957e+007
1178.69	1.74017e+007
1180.62	1.74001e+007
1182.55	1.73933e+007
1184.48	1.73843e+007
1186.41	1.73738e+007
1188.34	1.73607e+007
1190.27	1.7341e+007
1192.2	1.73091e+007
1194.13	1.7261e+007
1196.06	1.71993e+007
1197.99	1.71332e+007
1199.91	1.70729e+007
1201.84	1.70245e+007
1203.77	1.69892e+007
1205.7	1.69637e+007
1207.63	1.69433e+007
1209.56	1.69246e+007
1211.49	1.69076e+007
1213.42	1.68925e+007
1215.35	1.68773e+007
1217.28	1.68586e+007
1219.21	1.68349e+007
1221.14	1.68055e+007
1223.06	1.67687e+007
1224.99	1.67243e+007
1226.92	1.66764e+007
1228.85	1.66315e+007
1230.78	1.65924e+007
1232.71	1.65587e+007
1234.64	1.65317e+007
1236.57	1.65163e+007
1238.5	1.65185e+007
1240.43	1.65441e+007
1242.36	1.65991e+007
1244.28	1.66861e+007
1246.21	1.68001e+007
1248.14	1.69304e+007
1250.07	1.70682e+007
1252	1.72082e+007
1253.93	1.73439e+007
1255.86	1.74666e+007
1257.79	1.75737e+007
1259.72	1.76741e+007
1261.65	1.77751e+007
1263.58	1.78648e+007
1265.51	1.79162e+007
1267.43	1.79189e+007
1269.36	1.79017e+007
1271.29	1.79139e+007
1273.22	1.79806e+007
1275.15	1.80824e+007
1277.08	1.81821e+007
1279.01	1.8259e+007
1280.94	1.83139e+007
1282.87	1.83512e+007
1284.8	1.83744e+007
1286.73	1.83931e+007
1288.65	1.8421e+007
1290.58	1.84601e+007
1292.51	1.84987e+007
1294.44	1.85258e+007
1296.37	1.85418e+007
1298.3	1.85516e+007
1300.23	1.85567e+007
1302.16	1.85575e+007
1304.09	1.85567e+007
1306.02	1.85542e+007
1307.95	1.85428e+007
1309.87	1.85153e+007
1311.8	1.84709e+007
1313.73	1.84143e+007
1315.66	1.83539e+007
1317.59	1.83082e+007
1319.52	1.83028e+007
1321.45	1.8347e+007
1323.38	1.84158e+007
1325.31	1.84725e+007
1327.24	1.85124e+007
1329.17	1.85583e+007
1331.1	1.8599e+007
1333.02	1.8564e+007
1334.95	1.84058e+007
1336.88	1.82003e+007
1338.81	1.81097e+007
1340.74	1.82196e+007
1342.67	1.84459e+007
1344.6	1.86296e+007
1346.53	1.86925e+007
1348.46	1.86739e+007
1350.39	1.86488e+007
1352.32	1.8654e+007
1354.24	1.86657e+007
1356.17	1.86096e+007
1358.1	1.84237e+007
1360.03	1.81646e+007
1361.96	1.80164e+007
1363.89	1.81156e+007
1365.82	1.83733e+007
1367.75	1.85461e+007
1369.68	1.84943e+007
1371.61	1.83111e+007
1373.54	1.81992e+007
1375.47	1.82843e+007
1377.39	1.85387e+007
1379.32	1.88014e+007
1381.25	1.887e+007
1383.18	1.86759e+007
1385.11	1.83915e+007
1387.04	1.82619e+007
1388.97	1.82976e+007
1390.9	1.82533e+007
1392.83	1.79738e+007
1394.76	1.76373e+007
1396.69	1.755e+007
1398.61	1.77839e+007
1400.54	1.81358e+007
1402.47	1.83907e+007
1404.4	1.85121e+007
1406.33	1.85989e+007
1408.26	1.8744e+007
1410.19	1.89123e+007
1412.12	1.88997e+007
1414.05	1.8492e+007
1415.98	1.77722e+007
1417.91	1.71967e+007
1419.83	1.72015e+007
1421.76	1.77343e+007
1423.69	1.83221e+007
1425.62	1.86034e+007
1427.55	1.86223e+007
1429.48	1.85539e+007
1431.41	1.83636e+007
1433.34	1.7952e+007
1435.27	1.75348e+007
1437.2	1.75764e+007
1439.13	1.8215e+007
1441.06	1.89502e+007
1442.98	1.91487e+007
1444.91	1.88078e+007
1446.84	1.85209e+007
1448.77	1.85982e+007
1450.7	1.85558e+007
1452.63	1.78002e+007
1454.56	1.66157e+007
1456.49	1.59966e+007
1458.42	1.6462e+007
1460.35	1.74862e+007
1462.28	1.82614e+007
1464.2	1.85814e+007
1466.13	1.86589e+007
1468.06	1.84886e+007
1469.99	1.79425e+007
1471.92	1.73276e+007
1473.85	1.72705e+007
1475.78	1.79689e+007
1477.71	1.8953e+007
1479.64	1.96526e+007
1481.57	1.98512e+007
1483.5	1.95592e+007
1485.43	1.88913e+007
1487.35	1.8208e+007
1489.28	1.79395e+007
1491.21	1.80315e+007
1493.14	1.79507e+007
1495.07	1.75002e+007
1497	1.7194e+007
1498.93	1.7412e+007
1500.86	1.75901e+007
1502.79	1.68956e+007
1504.72	1.55535e+007
1506.65	1.48003e+007
1508.57	1.53867e+007
1510.5	1.66781e+007
1512.43	1.74803e+007
1514.36	1.73175e+007
1516.29	1.65858e+007
1518.22	1.58392e+007
1520.15	1.53915e+007
1522.08	1.54317e+007
1524.01	1.60103e+007
1525.94	1.68295e+007
1527.87	1.73873e+007
1529.8	1.74596e+007
1531.72	1.72154e+007
1533.65	1.67736e+007
1535.58	1.59552e+007
1537.51	1.47254e+007
1539.44	1.36605e+007
1541.37	1.35596e+007
1543.3	1.45469e+007
1545.23	1.58771e+007
1547.16	1.67485e+007
1549.09	1.70032e+007
1551.02	1.68234e+007
1552.94	1.61254e+007
1554.87	1.47974e+007
1556.8	1.3431e+007
1558.73	1.31368e+007
1560.66	1.43166e+007
1562.59	1.60459e+007
1564.52	1.70702e+007
1566.45	1.7136e+007
1568.38	1.69176e+007
1570.31	1.68853e+007
1572.24	1.68573e+007
1574.16	1.66727e+007
1576.09	1.66797e+007
1578.02	1.72445e+007
1579.95	1.81519e+007
1581.88	1.88538e+007
1583.81	1.91261e+007
1585.74	1.91792e+007
1587.67	1.92382e+007
1589.6	1.93049e+007
1591.53	1.93141e+007
1593.46	1.92883e+007
1595.39	1.92829e+007
1597.31	1.93029e+007
1599.24	1.93131e+007
1601.17	1.92723e+007
1603.1	1.91747e+007
1605.03	1.9096e+007
1606.96	1.91327e+007
1608.89	1.92153e+007
1610.82	1.90738e+007
1612.75	1.85423e+007
1614.68	1.78688e+007
1616.61	1.75386e+007
1618.53	1.77283e+007
1620.46	1.80921e+007
1622.39	1.82295e+007
1624.32	1.82397e+007
1626.25	1.85426e+007
1628.18	1.91214e+007
1630.11	1.9303e+007
1632.04	1.86103e+007
1633.97	1.76282e+007
1635.9	1.75021e+007
1637.83	1.85039e+007
1639.76	1.96047e+007
1641.68	1.9741e+007
1643.61	1.90292e+007
1645.54	1.827e+007
1647.47	1.76915e+007
1649.4	1.6948e+007
1651.33	1.62219e+007
1653.26	1.6411e+007
1655.19	1.78977e+007
1657.12	1.97919e+007
1659.05	2.08849e+007
1660.98	2.09547e+007
1662.9	2.06634e+007
1664.83	2.04859e+007
1666.76	2.02917e+007
1668.69	1.98862e+007
1670.62	1.94688e+007
1672.55	1.94249e+007
1674.48	1.98753e+007
1676.41	2.04722e+007
1678.34	2.05806e+007
1680.27	1.98356e+007
1682.2	1.86918e+007
1684.12	1.82098e+007
1686.05	1.90018e+007
1687.98	2.04826e+007
1689.91	2.14075e+007
1691.84	2.10655e+007
1693.77	1.97535e+007
1695.7	1.82865e+007
1697.63	1.73829e+007
1699.56	1.74003e+007
1701.49	1.82408e+007
1703.42	1.94264e+007
1705.35	2.04909e+007
1707.27	2.12849e+007
1709.2	2.17349e+007
1711.13	2.15343e+007
1713.06	2.05241e+007
1714.99	1.93016e+007
1716.92	1.89022e+007
1718.85	1.97114e+007
1720.78	2.1074e+007
1722.71	2.21098e+007
1724.64	2.25019e+007
1726.57	2.23118e+007
1728.49	2.15422e+007
1730.42	2.03382e+007
1732.35	1.93079e+007
1734.28	1.90958e+007
1736.21	1.96749e+007
1738.14	2.04309e+007
1740.07	2.09073e+007
1742	2.11156e+007
1743.93	2.11472e+007
1745.86	2.09285e+007
1747.79	2.05239e+007
1749.72	2.03293e+007
1751.64	2.06611e+007
1753.57	2.13018e+007
1755.5	2.17139e+007
1757.43	2.16688e+007
1759.36	2.14622e+007
1761.29	2.14819e+007
1763.22	2.17119e+007
1765.15	2.17504e+007
1767.08	2.12848e+007
1769.01	2.04998e+007
1770.94	1.99877e+007
1772.86	2.0208e+007
1774.79	2.10182e+007
1776.72	2.17983e+007
1778.65	2.2084e+007
1780.58	2.20015e+007
1782.51	2.19836e+007
1784.44	2.21415e+007
1786.37	2.21288e+007
1788.3	2.16794e+007
1790.23	2.10664e+007
1792.16	2.08245e+007
1794.08	2.11003e+007
1796.01	2.15117e+007
1797.94	2.16786e+007
1799.87	2.16703e+007
1801.8	2.17934e+007
1803.73	2.20993e+007
1805.66	2.23266e+007
1807.59	2.22992e+007
1809.52	2.2167e+007
1811.45	2.21749e+007
1813.38	2.23452e+007
1815.31	2.25042e+007
1817.23	2.25294e+007
1819.16	2.24298e+007
1821.09	2.22214e+007
1823.02	2.18818e+007
1824.95	2.14703e+007
1826.88	2.11763e+007
1828.81	2.1165e+007
1830.74	2.14249e+007
1832.67	2.18091e+007
1834.6	2.21565e+007
1836.53	2.23105e+007
1838.45	2.21221e+007
1840.38	2.15948e+007
1842.31	2.10227e+007
1844.24	2.08219e+007
1846.17	2.11441e+007
1848.1	2.17282e+007
1850.03	2.21843e+007
1851.96	2.23507e+007
1853.89	2.23293e+007
1855.82	2.2277e+007
1857.75	2.22632e+007
1859.68	2.22654e+007
1861.6	2.21841e+007
1863.53	2.18996e+007
1865.46	2.14367e+007
1867.39	2.10604e+007
1869.32	2.10716e+007
1871.25	2.14727e+007
1873.18	2.19394e+007
1875.11	2.21689e+007
1877.04	2.21622e+007
1878.97	2.21104e+007
1880.9	2.2105e+007
1882.82	2.20684e+007
1884.75	2.1926e+007
1886.68	2.17318e+007
1888.61	2.16047e+007
1890.54	2.16038e+007
1892.47	2.16931e+007
1894.4	2.17956e+007
1896.33	2.18642e+007
1898.26	2.19049e+007
1900.19	2.19364e+007
1902.12	2.19379e+007
1904.05	2.18699e+007
1905.97	2.17541e+007
1907.9	2.16796e+007
1909.83	2.16886e+007
1911.76	2.16955e+007
1913.69	2.15815e+007
1915.62	2.13572e+007
1917.55	2.11691e+007
1919.48	2.11416e+007
1921.41	2.12631e+007
1923.34	2.14383e+007
1925.27	2.15899e+007
1927.19	2.1685e+007
1929.12	2.17154e+007
1931.05	2.17019e+007
1932.98	2.16867e+007
1934.91	2.16754e+007
1936.84	2.16091e+007
1938.77	2.14449e+007
1940.7	2.12516e+007
1942.63	2.11673e+007
1944.56	2.12493e+007
1946.49	2.1412e+007
1948.41	2.15276e+007
1950.34	2.15505e+007
1952.27	2.15208e+007
1954.2	2.14878e+007
1956.13	2.14694e+007
1958.06	2.14611e+007
1959.99	2.14445e+007
1961.92	2.13927e+007
1963.85	2.13044e+007
1965.78	2.12273e+007
1967.71	2.1218e+007
1969.64	2.12741e+007
1971.56	2.13357e+007
1973.49	2.13544e+007
1975.42	2.13357e+007
1977.35	2.1309e+007
1979.28	2.12876e+007
1981.21	2.12677e+007
1983.14	2.124e+007
1985.07	2.11851e+007
1987	2.10866e+007
1988.93	2.0969e+007
1990.86	2.08995e+007
1992.78	2.09238e+007
1994.71	2.10091e+007
1996.64	2.10786e+007
1998.57	2.1093e+007
2000.5	2.10742e+007
2002.43	2.10551e+007
2004.36	2.10412e+007
2006.29	2.10255e+007
2008.22	2.10084e+007
2010.15	2.09859e+007
2012.08	2.09425e+007
2014.01	2.08758e+007
2015.93	2.08163e+007
2017.86	2.07996e+007
2019.79	2.08242e+007
2021.72	2.08547e+007
2023.65	2.08621e+007
2025.58	2.08478e+007
2027.51	2.0827e+007
2029.44	2.08081e+007
2031.37	2.07917e+007
2033.3	2.07759e+007
2035.23	2.07557e+007
2037.15	2.07257e+007
2039.08	2.06911e+007
2041.01	2.06672e+007
2042.94	2.06624e+007
2044.87	2.06674e+007
2046.8	2.06659e+007
2048.73	2.06535e+007
2050.66	2.06374e+007
2052.59	2.06245e+007
2054.52	2.06138e+007
2056.45	2.06002e+007
2058.37	2.05778e+007
2060.3	2.05441e+007
2062.23	2.0505e+007
2064.16	2.04748e+007
2066.09	2.04638e+007
2068.02	2.04669e+007
2069.95	2.04691e+007
2071.88	2.04617e+007
2073.81	2.04475e+007
2075.74	2.04319e+007
2077.67	2.04163e+007
2079.6	2.04002e+007
2081.52	2.03833e+007
2083.45	2.03639e+007
2085.38	2.03399e+007
2087.31	2.03147e+007
2089.24	2.0297e+007
2091.17	2.02905e+007
2093.1	2.02881e+007
2095.03	2.02794e+007
2096.96	2.02623e+007
2098.89	2.0243e+007
2100.82	2.02266e+007
2102.74	2.02128e+007
2104.67	2.01989e+007
2106.6	2.01834e+007
2108.53	2.01655e+007
2110.46	2.01444e+007
2112.39	2.01221e+007
2114.32	2.01028e+007
2116.25	2.00893e+007
2118.18	2.0079e+007
2120.11	2.00658e+007
2122.04	2.00464e+007
2123.97	2.00235e+007
2125.89	2.00024e+007
2127.82	1.9986e+007
2129.75	1.99722e+007
2131.68	1.99568e+007
2133.61	1.99379e+007
2135.54	1.9917e+007
2137.47	1.98968e+007
2139.4	1.98785e+007
2141.33	1.98614e+007
2143.26	1.98448e+007
2145.19	1.98286e+007
2147.11	1.98127e+007
2149.04	1.97962e+007
2150.97	1.9779e+007
2152.9	1.97616e+007
2154.83	1.9744e+007
2156.76	1.97248e+007
2158.69	1.9703e+007
2160.62	1.96798e+007
2162.55	1.96579e+007
2164.48	1.96381e+007
2166.41	1.96186e+007
2168.33	1.95975e+007
2170.26	1.95752e+007
2172.19	1.95537e+007
2174.12	1.95349e+007
2176.05	1.95177e+007
2177.98	1.94992e+007
2179.91	1.94769e+007
2181.84	1.9452e+007
2183.77	1.94283e+007
2185.7	1.94081e+007
2187.63	1.93903e+007
2189.56	1.93719e+007
2191.48	1.93521e+007
2193.41	1.93319e+007
2195.34	1.9312e+007
2197.27	1.92913e+007
2199.2	1.92689e+007
2201.13	1.92454e+007
2203.06	1.92218e+007
2204.99	1.9199e+007
2206.92	1.91775e+007
2208.85	1.91576e+007
2210.78	1.91391e+007
2212.7	1.91208e+007
2214.63	1.91007e+007
2216.56	1.90781e+007
2218.49	1.90539e+007
2220.42	1.903e+007
2222.35	1.9007e+007
2224.28	1.89844e+007
2226.21	1.89617e+007
2228.14	1.89384e+007
2230.07	1.89134e+007
2232	1.88855e+007
2233.93	1.88547e+007
2235.85	1.8823e+007
2237.78	1.87929e+007
2239.71	1.87639e+007
2241.64	1.87334e+007
2243.57	1.86989e+007
2245.5	1.86609e+007
2247.43	1.86208e+007
2249.36	1.85792e+007
2251.29	1.85358e+007
2253.22	1.84906e+007
2255.15	1.84446e+007
2257.07	1.83977e+007
2259	1.83486e+007
2260.93	1.82977e+007
2262.86	1.82483e+007
2264.79	1.82033e+007
2266.72	1.81631e+007
2268.65	1.8127e+007
2270.58	1.8096e+007
2272.51	1.80709e+007
2274.44	1.80525e+007
2276.37	1.8045e+007
2278.29	1.80497e+007
2280.22	1.80487e+007
2282.15	1.80034e+007
2284.08	1.78905e+007
2286.01	1.77371e+007
2287.94	1.75991e+007
2289.87	1.74949e+007
2291.8	1.73819e+007
2293.73	1.72093e+007
2295.66	1.69746e+007
2297.59	1.67089e+007
2299.52	1.64237e+007
2301.44	1.60981e+007
2303.37	1.57102e+007
2305.3	1.52571e+007
2307.23	1.47506e+007
2309.16	1.42155e+007
2311.09	1.36841e+007
2313.02	1.31652e+007
2314.95	1.26234e+007
2316.88	1.20217e+007
2318.81	1.13863e+007
2320.74	1.07961e+007
2322.66	1.03022e+007
2324.59	9.88777e+006
2326.52	9.51434e+006
2328.45	9.17652e+006
2330.38	8.89808e+006
2332.31	8.69815e+006
2334.24	8.57017e+006
2336.17	8.47561e+006
2338.1	8.37516e+006
2340.03	8.31794e+006
2341.96	8.48271e+006
2343.89	9.01687e+006
2345.81	9.7666e+006
2347.74	1.02526e+007
